Tiempo (s),Voltaje (V)
0.0,1.6678089071647264
0.00101010101010101,1.671344798291102
0.00202020202020202,1.671344798291102
0.0030303030303030303,1.6652373499819078
0.00404040404040404,1.6520581194199622
0.00505050505050505,1.6327714405488223
0.006060606060606061,1.6096274259034544
0.007070707070707071,1.5874477452016436
0.00808080808080808,1.5688039556262083
0.00909090909090909,1.5581962822470814
0.0101010101010101,1.557874837599229
0.011111111111111112,1.567518177034799
0.012121212121212121,1.5845547433709726
0.013131313131313131,1.606412979424931
0.014141414141414142,1.6298784387181513
0.015151515151515152,1.6520581194199622
0.01616161616161616,1.671344798291102
0.01717171717171717,1.685809807444457
0.01818181818181818,1.69448881293647
0.01919191919191919,1.696417480823584
0.0202020202020202,1.6870955860358663
0.021212121212121213,1.6700590196996927
0.022222222222222223,1.6449863371672109
0.023232323232323233,1.6173420974519104
0.024242424242424242,1.5890549684409052
0.025252525252525252,1.5652680644998327
0.026262626262626262,1.553053167881444
0.02727272727272727,1.552088833937887
0.028282828282828285,1.5610892840777524
0.029292929292929294,1.5765186271746643
0.030303030303030304,1.5980554185807705
0.031313131313131314,1.621842322521843
0.03232323232323232,1.6443434478715062
0.03333333333333333,1.662665792799089
0.03434343434343434,1.6745592447696254
0.03535353535353535,1.680023803783115
0.03636363636363636,1.6777736912481487
0.03737373737373737,1.667487462516874
0.03838383838383838,1.6507723408285528
0.03939393939393939,1.629556994070299
0.0404040404040404,1.6057700901292264
0.04141414141414142,1.5851976326666772
0.04242424242424243,1.5700897342176177
0.043434343434343436,1.565589509147685
0.044444444444444446,1.5710540681611747
0.045454545454545456,1.5855190773145296
0.046464646464646465,1.6044843115378171
0.047474747474747475,1.626663992239628
0.048484848484848485,1.6501294515328482
0.049494949494949494,1.6710233536432497
0.050505050505050504,1.6890242539229803
0.051515151515151514,1.7012391505413689
0.052525252525252523,1.7073465988505632
0.05353535353535353,1.7028463737806305
0.05454545454545454,1.6903100325143896
0.05555555555555555,1.6707019089953974
0.05656565656565657,1.6482007836457342
0.05757575757575758,1.6244138797046617
0.05858585858585859,1.6038414222421125
0.0595959595959596,1.5877691898494959
0.06060606060606061,1.5816617415403016
0.06161616161616162,1.584876188018825
0.06262626262626263,1.5951624167500995
0.06363636363636363,1.608341647312045
0.06464646464646465,1.6253782136482187
0.06565656565656566,1.6430576692800969
0.06666666666666667,1.6581655677291565
0.06767676767676768,1.671344798291102
0.06868686868686869,1.6784165805438533
0.0696969696969697,1.6797023591352627
0.0707070707070707,1.6735949108260684
0.07171717171717172,1.6594513463205658
0.07272727272727272,1.6395217781537212
0.07373737373737374,1.6157348742126487
0.07474747474747474,1.5935551935108379
0.07575757575757576,1.5765186271746643
0.07676767676767676,1.569446844921913
0.07777777777777778,1.5720184021047316
0.07878787878787878,1.584876188018825
0.0797979797979798,1.6025556436507031
0.0808080808080808,1.6224852118175477
0.08181818181818182,1.64209333533654
0.08282828282828283,1.6591299016727135
0.08383838383838384,1.6716662429389544
0.08484848484848485,1.680988137726672
0.08585858585858586,1.6835596949094906
0.08686868686868687,1.6813095823745243
0.08787878787878788,1.6755235787131824
0.08888888888888889,1.6629872374469414
0.0898989898989899,1.6446648925193585
0.09090909090909091,1.6228066564654
0.09191919191919191,1.6009484204114415
0.09292929292929293,1.582947520131711
0.09393939393939393,1.5716969574568793
0.09494949494949495,1.5710540681611747
0.09595959595959595,1.5813402968924493
0.09696969696969697,1.5970910846372135
0.09797979797979799,1.616056318860501
0.09898989898989899,1.636307331675198
0.1,1.6552725658984855
0.0,1.6719876875868067
0.00101010101010101,1.6842025842051953
0.00202020202020202,1.6922387004015036
0.0030303030303030303,1.691595811105799
0.00404040404040404,1.680023803783115
0.00505050505050505,1.6594513463205658
0.006060606060606061,1.6330928851966746
0.007070707070707071,1.6051272008335218
0.00808080808080808,1.581983186188154
0.00909090909090909,1.5649466198519804
0.0101010101010101,1.5591606161906384
0.011111111111111112,1.564625175204128
0.012121212121212121,1.579090184357483
0.013131313131313131,1.6003055311157368
0.014141414141414142,1.6260211029439233
0.015151515151515152,1.6514152301242575
0.01616161616161616,1.6716662429389544
0.01717171717171717,1.688702809275128
0.01818181818181818,1.6996319273021072
0.01919191919191919,1.7022034844849259
0.0202020202020202,1.6960960361757316
0.021212121212121213,1.6806666930788197
0.022222222222222223,1.6575226784334518
0.023232323232323233,1.630521328013856
0.024242424242424242,1.6048057561856695
0.025252525252525252,1.582947520131711
0.026262626262626262,1.57041117886547
0.02727272727272727,1.567518177034799
0.028282828282828285,1.5755542932311073
0.029292929292929294,1.5900193023844622
0.030303030303030304,1.6105917598470114
0.031313131313131314,1.6330928851966746
0.03232323232323232,1.6530224533635192
0.03333333333333333,1.6697375750518404
0.03434343434343434,1.6822739163180813
0.03535353535353535,1.689667143218685
0.03636363636363636,1.6893456985708326
0.03737373737373737,1.680988137726672
0.03838383838383838,1.664594460686203
0.03939393939393939,1.6414504460408352
0.0404040404040404,1.616056318860501
0.04141414141414142,1.5922694149194285
0.04242424242424243,1.574268514639698
0.043434343434343436,1.565589509147685
0.044444444444444446,1.5697682895697653
0.045454545454545456,1.5813402968924493
0.046464646464646465,1.5974125292850658
0.047474747474747475,1.6157348742126487
0.048484848484848485,1.634378663788084
0.049494949494949494,1.6507723408285528
0.050505050505050504,1.664594460686203
0.051515151515151514,1.6745592447696254
0.052525252525252523,1.6803452484309673
0.05353535353535353,1.680023803783115
0.05454545454545454,1.671344798291102
0.05555555555555555,1.6543082319549285
0.05656565656565657,1.6311642173095606
0.05757575757575758,1.6057700901292264
0.05858585858585859,1.581983186188154
0.0595959595959596,1.5652680644998327
0.06060606060606061,1.558839171542786
0.06161616161616162,1.561732173373457
0.06262626262626263,1.573304180696141
0.06363636363636363,1.5890549684409052
0.06464646464646465,1.608341647312045
0.06565656565656566,1.6298784387181513
0.06666666666666667,1.6501294515328482
0.06767676767676768,1.66555879462976
0.06868686868686869,1.6764879126567394
0.0696969696969697,1.681952471670229
0.0707070707070707,1.6793809144874103
0.07171717171717172,1.6681303518125787
0.07272727272727272,1.6504508961807005
0.07373737373737374,1.628592660126742
0.07474747474747474,1.6041628668899648
0.07575757575757576,1.5832689647795632
0.07676767676767676,1.569446844921913
0.07777777777777778,1.5659109537955374
0.07878787878787878,1.5726612914004363
0.0797979797979798,1.5874477452016436
0.0808080808080808,1.6060915347770788
0.08181818181818182,1.6279497708310373
0.08282828282828283,1.6491651175892912
0.08383838383838384,1.6697375750518404
0.08484848484848485,1.6864526967401616
0.08585858585858586,1.698346148710698
0.08686868686868687,1.7041321523720399
0.08787878787878788,1.7022034844849259
0.08888888888888889,1.6890242539229803
0.0898989898989899,1.6671660178690217
0.09090909090909091,1.6404861120972782
0.09191919191919191,1.612198983086273
0.09292929292929293,1.5880906344973482
0.09393939393939393,1.572339846752584
0.09494949494949495,1.568482510978356
0.09595959595959595,1.5739470699918456
0.09696969696969697,1.5880906344973482
0.09797979797979799,1.607377313368488
0.09898989898989899,1.6292355494224466
0.1,1.6510937854764052
0.0,1.6690946857561357
0.00101010101010101,1.682916805613786
0.00202020202020202,1.689667143218685
0.0030303030303030303,1.6893456985708326
0.00404040404040404,1.6797023591352627
0.00505050505050505,1.6623443481512368
0.006060606060606061,1.6398432228015736
0.007070707070707071,1.6157348742126487
0.00808080808080808,1.5958053060458042
0.00909090909090909,1.581018852244597
0.0101010101010101,1.574268514639698
0.011111111111111112,1.5774829611182213
0.012121212121212121,1.5874477452016436
0.013131313131313131,1.6028770882985555
0.014141414141414142,1.6228066564654
0.015151515151515152,1.6424147799843922
0.01616161616161616,1.6600942356162705
0.01717171717171717,1.67520213406533
0.01818181818181818,1.6861312520923093
0.01919191919191919,1.691595811105799
0.0202020202020202,1.687738475331571
0.021212121212121213,1.673273466178216
0.022222222222222223,1.6539867873070762
0.023232323232323233,1.6298784387181513
0.024242424242424242,1.6044843115378171
0.025252525252525252,1.581983186188154
0.026262626262626262,1.566553843091242
0.02727272727272727,1.5620536180213094
0.028282828282828285,1.567518177034799
0.029292929292929294,1.58005451830104
0.030303030303030304,1.5967696399893612
0.031313131313131314,1.617020652804058
0.03232323232323232,1.639200333505869
0.03333333333333333,1.6600942356162705
0.03434343434343434,1.678095135896001
0.03535353535353535,1.692560145049356
0.03636363636363636,1.6977032594149932
0.03737373737373737,1.691595811105799
0.03838383838383838,1.674237800121773
0.03939393939393939,1.6475578943500295
0.0404040404040404,1.6157348742126487
0.04141414141414142,1.5845547433709726
0.04242424242424243,1.559803505486343
0.043434343434343436,1.5459813856286928
0.044444444444444446,1.5459813856286928
0.045454545454545456,1.5572319483035244
0.046464646464646465,1.5768400718225166
0.047474747474747475,1.5980554185807705
0.048484848484848485,1.6205565439304337
0.049494949494949494,1.6395217781537212
0.050505050505050504,1.6549511212506332
0.051515151515151514,1.6662016839254647
0.052525252525252523,1.673273466178216
0.05353535353535353,1.6716662429389544
0.05454545454545454,1.6613800142076798
0.05555555555555555,1.6427362246322446
0.05656565656565657,1.618949320691172
0.05757575757575758,1.5941980828065425
0.05858585858585859,1.5716969574568793
0.0595959595959596,1.555946169712115
0.06060606060606061,1.5517673892900348
0.06161616161616162,1.5581962822470814
0.06262626262626263,1.573304180696141
0.06363636363636363,1.5932337488629855
0.06464646464646465,1.6147705402690917
0.06565656565656566,1.6375931102666073
0.06666666666666667,1.6591299016727135
0.06767676767676768,1.6764879126567394
0.06868686868686869,1.6861312520923093
0.0696969696969697,1.6903100325143896
0.0707070707070707,1.6835596949094906
0.07171717171717172,1.6678089071647264
0.07272727272727272,1.6456292264629155
0.07373737373737374,1.6205565439304337
0.07474747474747474,1.5951624167500995
0.07575757575757576,1.573304180696141
0.07676767676767676,1.559803505486343
0.07777777777777778,1.555946169712115
0.07878787878787878,1.5643037305562757
0.0797979797979798,1.5806974075967446
0.0808080808080808,1.6019127543549985
0.08181818181818182,1.6250567690003663
0.08282828282828283,1.6482007836457342
0.08383838383838384,1.6687732411082834
0.08484848484848485,1.682916805613786
0.08585858585858586,1.690631477162242
0.08686868686868687,1.6909529218100943
0.08787878787878788,1.681952471670229
0.08888888888888889,1.6658802392776124
0.0898989898989899,1.6433791139279492
0.09090909090909091,1.617020652804058
0.09191919191919191,1.5945195274543948
0.09292929292929293,1.577161516470369
0.09393939393939393,1.5662323984433897
0.09494949494949495,1.5639822859084234
0.09595959595959595,1.5697682895697653
0.09696969696969697,1.5823046308360063
0.09797979797979799,1.5993411971721798
0.09898989898989899,1.6192707653390244
0.1,1.637271665618755
0.0,1.6530224533635192
0.00101010101010101,1.6658802392776124
0.00202020202020202,1.6745592447696254
0.0030303030303030303,1.6719876875868067
0.00404040404040404,1.6620229035033844
0.00505050505050505,1.6437005585758016
0.006060606060606061,1.6205565439304337
0.007070707070707071,1.5977339739329182
0.00808080808080808,1.578125850413926
0.00909090909090909,1.567518177034799
0.0101010101010101,1.565589509147685
0.011111111111111112,1.5710540681611747
0.012121212121212121,1.5832689647795632
0.013131313131313131,1.5986983078764752
0.014141414141414142,1.6157348742126487
0.015151515151515152,1.63244999590097
0.01616161616161616,1.6475578943500295
0.01717171717171717,1.6613800142076798
0.01818181818181818,1.6690946857561357
0.01919191919191919,1.6735949108260684
0.0202020202020202,1.6690946857561357
0.021212121212121213,1.6578441230813041
0.022222222222222223,1.6388788888580166
0.023232323232323233,1.614127650973387
0.024242424242424242,1.5877691898494959
0.025252525252525252,1.564625175204128
0.026262626262626262,1.5508030553464778
0.02727272727272727,1.5475886088679545
0.028282828282828285,1.5556247250642627
0.029292929292929294,1.573304180696141
0.030303030303030304,1.5941980828065425
0.031313131313131314,1.6183064313954674
0.03232323232323232,1.6417718906886876
0.03333333333333333,1.663630126742646
0.03434343434343434,1.6797023591352627
0.03535353535353535,1.6893456985708326
0.03636363636363636,1.6899885878665373
0.03737373737373737,1.6822739163180813
0.03838383838383838,1.664594460686203
0.03939393939393939,1.6414504460408352
0.0404040404040404,1.6154134295647964
0.04141414141414142,1.5893764130887575
0.04242424242424243,1.5688039556262083
0.043434343434343436,1.5581962822470814
0.044444444444444446,1.5581962822470814
0.045454545454545456,1.567518177034799
0.046464646464646465,1.5855190773145296
0.047474747474747475,1.6089845366077498
0.048484848484848485,1.6330928851966746
0.049494949494949494,1.6543082319549285
0.050505050505050504,1.671344798291102
0.051515151515151514,1.6832382502616383
0.052525252525252523,1.6874170306837186
0.05353535353535353,1.6845240288530476
0.05454545454545454,1.672309132234659
0.05555555555555555,1.6546296766027808
0.05656565656565657,1.63244999590097
0.05757575757575758,1.6099488705513068
0.05858585858585859,1.5887335237930529
0.0595959595959596,1.572339846752584
0.06060606060606061,1.5652680644998327
0.06161616161616162,1.5652680644998327
0.06262626262626263,1.5749114039354026
0.06363636363636363,1.5896978577366099
0.06464646464646465,1.608341647312045
0.06565656565656566,1.6289141047745943
0.06666666666666667,1.6475578943500295
0.06767676767676768,1.6639515713904984
0.06868686868686869,1.6748806894174777
0.0696969696969697,1.6793809144874103
0.0707070707070707,1.676166468008887
0.07171717171717172,1.6649159053340554
0.07272727272727272,1.6472364497021772
0.07373737373737374,1.6253782136482187
0.07474747474747474,1.6035199775942601
0.07575757575757576,1.582947520131711
0.07676767676767676,1.5700897342176177
0.07777777777777778,1.5649466198519804
0.07878787878787878,1.5697682895697653
0.0797979797979798,1.5823046308360063
0.0808080808080808,1.6009484204114415
0.08181818181818182,1.6250567690003663
0.08282828282828283,1.6514152301242575
0.08383838383838384,1.6739163554739207
0.08484848484848485,1.6922387004015036
0.08585858585858586,1.7028463737806305
0.08686868686868687,1.7041321523720399
0.08787878787878788,1.6922387004015036
0.08888888888888889,1.6710233536432497
0.0898989898989899,1.6449863371672109
0.09090909090909091,1.617020652804058
0.09191919191919191,1.5922694149194285
0.09292929292929293,1.5726612914004363
0.09393939393939393,1.562696507317014
0.09494949494949495,1.5652680644998327
0.09595959595959595,1.574268514639698
0.09696969696969697,1.5909836363280192
0.09797979797979799,1.6105917598470114
0.09898989898989899,1.6311642173095606
0.1,1.6501294515328482
0.0,1.666523128573317
0.00101010101010101,1.6784165805438533
0.00202020202020202,1.6851669181487523
0.0030303030303030303,1.6825953609659337
0.00404040404040404,1.6726305768825114
0.00505050505050505,1.6539867873070762
0.006060606060606061,1.631485661957413
0.007070707070707071,1.608341647312045
0.00808080808080808,1.5884120791452006
0.00909090909090909,1.573304180696141
0.0101010101010101,1.5668752877390943
0.011111111111111112,1.569446844921913
0.012121212121212121,1.5813402968924493
0.013131313131313131,1.5964481953415088
0.014141414141414142,1.6147705402690917
0.015151515151515152,1.6340572191402316
0.01616161616161616,1.6527010087156668
0.01717171717171717,1.6681303518125787
0.01818181818181818,1.6787380251917057
0.01919191919191919,1.6822739163180813
0.0202020202020202,1.6774522466002963
0.021212121212121213,1.66555879462976
0.022222222222222223,1.6475578943500295
0.023232323232323233,1.6244138797046617
0.024242424242424242,1.6009484204114415
0.025252525252525252,1.581018852244597
0.026262626262626262,1.5681610663305037
0.02727272727272727,1.565589509147685
0.028282828282828285,1.574268514639698
0.029292929292929294,1.5884120791452006
0.030303030303030304,1.6048057561856695
0.031313131313131314,1.6244138797046617
0.03232323232323232,1.6440220032236539
0.03333333333333333,1.6620229035033844
0.03434343434343434,1.6758450233610347
0.03535353535353535,1.682916805613786
0.03636363636363636,1.6842025842051953
0.03737373737373737,1.6774522466002963
0.03838383838383838,1.6642730160383508
0.03939393939393939,1.6440220032236539
0.0404040404040404,1.6231281011132523
0.04141414141414142,1.6009484204114415
0.04242424242424243,1.5816617415403016
0.043434343434343436,1.5678396216826513
0.044444444444444446,1.5620536180213094
0.045454545454545456,1.5668752877390943
0.046464646464646465,1.578125850413926
0.047474747474747475,1.5958053060458042
0.048484848484848485,1.6163777635083534
0.049494949494949494,1.638235999562312
0.050505050505050504,1.6549511212506332
0.051515151515151514,1.6678089071647264
0.052525252525252523,1.6735949108260684
0.05353535353535353,1.6710233536432497
0.05454545454545454,1.6600942356162705
0.05555555555555555,1.6414504460408352
0.05656565656565657,1.6176635420997627
0.05757575757575758,1.5941980828065425
0.05858585858585859,1.5736256253439933
0.0595959595959596,1.5607678394299
0.06060606060606061,1.5581962822470814
0.06161616161616162,1.565589509147685
0.06262626262626263,1.5797330736531876
0.06363636363636363,1.5990197525243275
0.06464646464646465,1.6195922099868767
0.06565656565656566,1.641129001392983
0.06666666666666667,1.6607371249119751
0.06767676767676768,1.6764879126567394
0.06868686868686869,1.6883813646272756
0.0696969696969697,1.6928815896972083
0.0707070707070707,1.6883813646272756
0.07171717171717172,1.6758450233610347
0.07272727272727272,1.6543082319549285
0.07373737373737374,1.626663992239628
0.07474747474747474,1.5980554185807705
0.07575757575757576,1.5720184021047316
0.07676767676767676,1.5527317232335918
0.07777777777777778,1.5443741623894311
0.07878787878787878,1.5456599409808405
0.0797979797979798,1.5575533929513767
0.0808080808080808,1.5768400718225166
0.08181818181818182,1.5999840864678845
0.08282828282828283,1.6234495457611047
0.08383838383838384,1.6443434478715062
0.08484848484848485,1.6613800142076798
0.08585858585858586,1.674237800121773
0.08686868686868687,1.680023803783115
0.08787878787878788,1.6745592447696254
0.08888888888888889,1.6604156802641228
0.0898989898989899,1.6395217781537212
0.09090909090909091,1.6157348742126487
0.09191919191919191,1.5925908595672809
0.09292929292929293,1.5745899592875503
0.09393939393939393,1.564625175204128
0.09494949494949495,1.5643037305562757
0.09595959595959595,1.572339846752584
0.09696969696969697,1.5874477452016436
0.09797979797979799,1.6060915347770788
0.09898989898989899,1.627628326183185
0.1,1.6491651175892912
0.0,1.66555879462976
0.00101010101010101,1.677130801952444
0.00202020202020202,1.6822739163180813
0.0030303030303030303,1.6803452484309673
0.00404040404040404,1.6690946857561357
0.00505050505050505,1.6523795640678145
0.006060606060606061,1.6327714405488223
0.007070707070707071,1.609305981255602
0.00808080808080808,1.5877691898494959
0.00909090909090909,1.5716969574568793
0.0101010101010101,1.5659109537955374
0.011111111111111112,1.5716969574568793
0.012121212121212121,1.5871263005537912
0.013131313131313131,1.6080202026641928
0.014141414141414142,1.6337357744923793
0.015151515151515152,1.6581655677291565
0.01616161616161616,1.6784165805438533
0.01717171717171717,1.693524478992913
0.01818181818181818,1.6996319273021072
0.01919191919191919,1.6957745915278792
0.0202020202020202,1.685809807444457
0.021212121212121213,1.6687732411082834
0.022222222222222223,1.6449863371672109
0.023232323232323233,1.6192707653390244
0.024242424242424242,1.5935551935108379
0.025252525252525252,1.5707326235133223
0.026262626262626262,1.556910503655672
0.02727272727272727,1.554981835768558
0.028282828282828285,1.5639822859084234
0.029292929292929294,1.582947520131711
0.030303030303030304,1.607377313368488
0.031313131313131314,1.63244999590097
0.03232323232323232,1.6549511212506332
0.03333333333333333,1.672309132234659
0.03434343434343434,1.6832382502616383
0.03535353535353535,1.6893456985708326
0.03636363636363636,1.6854883627966046
0.03737373737373737,1.6739163554739207
0.03838383838383838,1.6549511212506332
0.03939393939393939,1.6318071066052653
0.0404040404040404,1.6076987580163404
0.04141414141414142,1.5823046308360063
0.04242424242424243,1.5623750626691617
0.043434343434343436,1.5546603911207058
0.044444444444444446,1.5594820608384907
0.045454545454545456,1.5739470699918456
0.046464646464646465,1.5961267506936565
0.047474747474747475,1.618949320691172
0.048484848484848485,1.6379145549144596
0.049494949494949494,1.6530224533635192
0.050505050505050504,1.6652373499819078
0.051515151515151514,1.674237800121773
0.052525252525252523,1.6787380251917057
0.05353535353535353,1.6748806894174777
0.05454545454545454,1.6652373499819078
0.05555555555555555,1.6488436729414389
0.05656565656565657,1.628592660126742
0.05757575757575758,1.6067344240727834
0.05858585858585859,1.5877691898494959
0.0595959595959596,1.573304180696141
0.06060606060606061,1.5691254002740607
0.06161616161616162,1.574268514639698
0.06262626262626263,1.5871263005537912
0.06363636363636363,1.6038414222421125
0.06464646464646465,1.6244138797046617
0.06565656565656566,1.6472364497021772
0.06666666666666667,1.6681303518125787
0.06767676767676768,1.6842025842051953
0.06868686868686869,1.6960960361757316
0.0696969696969697,1.7009177058935165
0.0707070707070707,1.6951317022321746
0.07171717171717172,1.679059469839558
0.07272727272727272,1.6562368998420425
0.07373737373737374,1.6292355494224466
0.07474747474747474,1.6019127543549985
0.07575757575757576,1.577161516470369
0.07676767676767676,1.5594820608384907
0.07777777777777778,1.5517673892900348
0.07878787878787878,1.5536960571771488
0.0797979797979798,1.5643037305562757
0.0808080808080808,1.5832689647795632
0.08181818181818182,1.6054486454813741
0.08282828282828283,1.626663992239628
0.08383838383838384,1.6453077818150632
0.08484848484848485,1.6623443481512368
0.08585858585858586,1.674237800121773
0.08686868686868687,1.680988137726672
0.08787878787878788,1.679059469839558
0.08888888888888889,1.6700590196996927
0.0898989898989899,1.6546296766027808
0.09090909090909091,1.6350215530837886
0.09191919191919191,1.616056318860501
0.09292929292929293,1.5999840864678845
0.09393939393939393,1.5893764130887575
0.09494949494949495,1.5877691898494959
0.09595959595959595,1.5945195274543948
0.09696969696969697,1.6070558687206358
0.09797979797979799,1.6260211029439233
0.09898989898989899,1.6456292264629155
0.1,1.6620229035033844
0.0,1.6748806894174777
0.00101010101010101,1.6825953609659337
0.00202020202020202,1.6845240288530476
0.0030303030303030303,1.680988137726672
0.00404040404040404,1.6697375750518404
0.00505050505050505,1.6494865622371435
0.006060606060606061,1.626663992239628
0.007070707070707071,1.6035199775942601
0.00808080808080808,1.5864834112580866
0.00909090909090909,1.5755542932311073
0.0101010101010101,1.5716969574568793
0.011111111111111112,1.578125850413926
0.012121212121212121,1.5932337488629855
0.013131313131313131,1.6125204277341254
0.014141414141414142,1.6350215530837886
0.015151515151515152,1.6575226784334518
0.01616161616161616,1.6764879126567394
0.01717171717171717,1.6909529218100943
0.01818181818181818,1.6986675933585502
0.01919191919191919,1.698346148710698
0.0202020202020202,1.688702809275128
0.021212121212121213,1.6700590196996927
0.022222222222222223,1.6443434478715062
0.023232323232323233,1.6157348742126487
0.024242424242424242,1.5884120791452006
0.025252525252525252,1.5668752877390943
0.026262626262626262,1.5543389464728534
0.02727272727272727,1.5514459446421824
0.028282828282828285,1.559803505486343
0.029292929292929294,1.576197182526812
0.030303030303030304,1.5983768632286228
0.031313131313131314,1.6260211029439233
0.03232323232323232,1.6533438980113715
0.03333333333333333,1.6739163554739207
0.03434343434343434,1.687738475331571
0.03535353535353535,1.692560145049356
0.03636363636363636,1.691595811105799
0.03737373737373737,1.6806666930788197
0.03838383838383838,1.6620229035033844
0.03939393939393939,1.6379145549144596
0.0404040404040404,1.6118775384384207
0.04141414141414142,1.5877691898494959
0.04242424242424243,1.5691254002740607
0.043434343434343436,1.5575533929513767
0.044444444444444446,1.555946169712115
0.045454545454545456,1.561732173373457
0.046464646464646465,1.5768400718225166
0.047474747474747475,1.5961267506936565
0.048484848484848485,1.6176635420997627
0.049494949494949494,1.6395217781537212
0.050505050505050504,1.6568797891377471
0.051515151515151514,1.6697375750518404
0.052525252525252523,1.6745592447696254
0.05353535353535353,1.6707019089953974
0.05454545454545454,1.6594513463205658
0.05555555555555555,1.6430576692800969
0.05656565656565657,1.6211994332261384
0.05757575757575758,1.5961267506936565
0.05858585858585859,1.5729827360482886
0.0595959595959596,1.5581962822470814
0.06060606060606061,1.5527317232335918
0.06161616161616162,1.556910503655672
0.06262626262626263,1.5707326235133223
0.06363636363636363,1.5913050809758715
0.06464646464646465,1.6138062063255347
0.06565656565656566,1.6359858870273456
0.06666666666666667,1.6549511212506332
0.06767676767676768,1.6697375750518404
0.06868686868686869,1.6797023591352627
0.0696969696969697,1.6832382502616383
0.0707070707070707,1.678095135896001
0.07171717171717172,1.6633086820947938
0.07272727272727272,1.6414504460408352
0.07373737373737374,1.6157348742126487
0.07474747474747474,1.5922694149194285
0.07575757575757576,1.5726612914004363
0.07676767676767676,1.562696507317014
0.07777777777777778,1.5633393966127187
0.07878787878787878,1.572339846752584
0.0797979797979798,1.5884120791452006
0.0808080808080808,1.608341647312045
0.08181818181818182,1.629556994070299
0.08282828282828283,1.6494865622371435
0.08383838383838384,1.666523128573317
0.08484848484848485,1.680023803783115
0.08585858585858586,1.688702809275128
0.08686868686868687,1.6912743664579466
0.08787878787878788,1.6848454735009
0.08888888888888889,1.669416130403988
0.0898989898989899,1.6491651175892912
0.09090909090909091,1.6269854368874803
0.09191919191919191,1.6044843115378171
0.09292929292929293,1.583911854075268
0.09393939393939393,1.5700897342176177
0.09494949494949495,1.5671967323869467
0.09595959595959595,1.5726612914004363
0.09696969696969697,1.5874477452016436
0.09797979797979799,1.6067344240727834
0.09898989898989899,1.628592660126742
0.1,1.6453077818150632
0.0,1.6584870123770088
0.00101010101010101,1.6668445732211694
0.00202020202020202,1.6700590196996927
0.0030303030303030303,1.6652373499819078
0.00404040404040404,1.6530224533635192
0.00505050505050505,1.634378663788084
0.006060606060606061,1.6118775384384207
0.007070707070707071,1.5880906344973482
0.00808080808080808,1.5671967323869467
0.00909090909090909,1.5527317232335918
0.0101010101010101,1.5475886088679545
0.011111111111111112,1.5536960571771488
0.012121212121212121,1.5671967323869467
0.013131313131313131,1.5880906344973482
0.014141414141414142,1.6118775384384207
0.015151515151515152,1.636307331675198
0.01616161616161616,1.6591299016727135
0.01717171717171717,1.6768093573045917
0.01818181818181818,1.688702809275128
0.01919191919191919,1.693524478992913
0.0202020202020202,1.6890242539229803
0.021212121212121213,1.676166468008887
0.022222222222222223,1.6562368998420425
0.023232323232323233,1.631485661957413
0.024242424242424242,1.6086630919598974
0.025252525252525252,1.5900193023844622
0.026262626262626262,1.577161516470369
0.02727272727272727,1.5707326235133223
0.028282828282828285,1.5736256253439933
0.029292929292929294,1.5826260754838586
0.030303030303030304,1.5977339739329182
0.031313131313131314,1.617020652804058
0.03232323232323232,1.6356644423794933
0.03333333333333333,1.6520581194199622
0.03434343434343434,1.664594460686203
0.03535353535353535,1.6716662429389544
0.03636363636363636,1.6726305768825114
0.03737373737373737,1.6649159053340554
0.03838383838383838,1.6504508961807005
0.03939393939393939,1.629556994070299
0.0404040404040404,1.6080202026641928
0.04141414141414142,1.5874477452016436
0.04242424242424243,1.569446844921913
0.043434343434343436,1.558839171542786
0.044444444444444446,1.5565890590078197
0.045454545454545456,1.5643037305562757
0.046464646464646465,1.5797330736531876
0.047474747474747475,1.6006269757635891
0.048484848484848485,1.6231281011132523
0.049494949494949494,1.6443434478715062
0.050505050505050504,1.6649159053340554
0.051515151515151514,1.680988137726672
0.052525252525252523,1.6893456985708326
0.05353535353535353,1.6909529218100943
0.05454545454545454,1.682916805613786
0.05555555555555555,1.6668445732211694
0.05656565656565657,1.6472364497021772
0.05757575757575758,1.6228066564654
0.05858585858585859,1.5977339739329182
0.0595959595959596,1.578125850413926
0.06060606060606061,1.5678396216826513
0.06161616161616162,1.5697682895697653
0.06262626262626263,1.582947520131711
0.06363636363636363,1.6012698650592938
0.06464646464646465,1.6211994332261384
0.06565656565656566,1.641129001392983
0.06666666666666667,1.6591299016727135
0.06767676767676768,1.672309132234659
0.06868686868686869,1.6803452484309673
0.0696969696969697,1.6822739163180813
0.0707070707070707,1.6768093573045917
0.07171717171717172,1.6639515713904984
0.07272727272727272,1.6427362246322446
0.07373737373737374,1.6176635420997627
0.07474747474747474,1.5922694149194285
0.07575757575757576,1.5700897342176177
0.07676767676767676,1.555946169712115
0.07777777777777778,1.5514459446421824
0.07878787878787878,1.5562676143599674
0.0797979797979798,1.569446844921913
0.0808080808080808,1.5890549684409052
0.08181818181818182,1.6115560937905684
0.08282828282828283,1.634378663788084
0.08383838383838384,1.6549511212506332
0.08484848484848485,1.6700590196996927
0.08585858585858586,1.6793809144874103
0.08686868686868687,1.6822739163180813
0.08787878787878788,1.67520213406533
0.08888888888888889,1.6600942356162705
0.0898989898989899,1.638235999562312
0.09090909090909091,1.6125204277341254
0.09191919191919191,1.5880906344973482
0.09292929292929293,1.567518177034799
0.09393939393939393,1.5565890590078197
0.09494949494949495,1.554981835768558
0.09595959595959595,1.5633393966127187
0.09696969696969697,1.5794116290053353
0.09797979797979799,1.5996626418200321
0.09898989898989899,1.6224852118175477
0.1,1.6427362246322446
0.0,1.6623443481512368
0.00101010101010101,1.676166468008887
0.00202020202020202,1.6835596949094906
0.0030303030303030303,1.6825953609659337
0.00404040404040404,1.6716662429389544
0.00505050505050505,1.6517366747721098
0.006060606060606061,1.6263425475917757
0.007070707070707071,1.6019127543549985
0.00808080808080808,1.5797330736531876
0.00909090909090909,1.5649466198519804
0.0101010101010101,1.5572319483035244
0.011111111111111112,1.559803505486343
0.012121212121212121,1.57041117886547
0.013131313131313131,1.5880906344973482
0.014141414141414142,1.609305981255602
0.015151515151515152,1.6308427726617083
0.01616161616161616,1.6507723408285528
0.01717171717171717,1.6671660178690217
0.01818181818181818,1.6797023591352627
0.01919191919191919,1.685809807444457
0.0202020202020202,1.6845240288530476
0.021212121212121213,1.6739163554739207
0.022222222222222223,1.6568797891377471
0.023232323232323233,1.635342997731641
0.024242424242424242,1.6144490956212394
0.025252525252525252,1.5954838613979518
0.026262626262626262,1.5823046308360063
0.02727272727272727,1.5758757378789596
0.028282828282828285,1.5758757378789596
0.029292929292929294,1.5851976326666772
0.030303030303030304,1.6003055311157368
0.031313131313131314,1.6183064313954674
0.03232323232323232,1.6375931102666073
0.03333333333333333,1.6562368998420425
0.03434343434343434,1.6707019089953974
0.03535353535353535,1.6806666930788197
0.03636363636363636,1.6848454735009
0.03737373737373737,1.6813095823745243
0.03838383838383838,1.669416130403988
0.03939393939393939,1.6494865622371435
0.0404040404040404,1.6253782136482187
0.04141414141414142,1.6022341990028508
0.04242424242424243,1.582947520131711
0.043434343434343436,1.5745899592875503
0.044444444444444446,1.574268514639698
0.045454545454545456,1.582947520131711
0.046464646464646465,1.5990197525243275
0.047474747474747475,1.619913654634729
0.048484848484848485,1.641129001392983
0.049494949494949494,1.6600942356162705
0.050505050505050504,1.67520213406533
0.051515151515151514,1.6842025842051953
0.052525252525252523,1.6854883627966046
0.05353535353535353,1.6803452484309673
0.05454545454545454,1.6687732411082834
0.05555555555555555,1.6517366747721098
0.05656565656565657,1.6311642173095606
0.05757575757575758,1.6086630919598974
0.05858585858585859,1.5880906344973482
0.0595959595959596,1.572339846752584
0.06060606060606061,1.5643037305562757
0.06161616161616162,1.565589509147685
0.06262626262626263,1.574268514639698
0.06363636363636363,1.5900193023844622
0.06464646464646465,1.609305981255602
0.06565656565656566,1.630521328013856
0.06666666666666667,1.6514152301242575
0.06767676767676768,1.667487462516874
0.06868686868686869,1.6797023591352627
0.0696969696969697,1.6861312520923093
0.0707070707070707,1.6832382502616383
0.07171717171717172,1.673273466178216
0.07272727272727272,1.6568797891377471
0.07373737373737374,1.6350215530837886
0.07474747474747474,1.6118775384384207
0.07575757575757576,1.5903407470323145
0.07676767676767676,1.5749114039354026
0.07777777777777778,1.5697682895697653
0.07878787878787878,1.5749114039354026
0.0797979797979798,1.586804855905939
0.0808080808080808,1.6038414222421125
0.08181818181818182,1.624735324352514
0.08282828282828283,1.6469150050543249
0.08383838383838384,1.6662016839254647
0.08484848484848485,1.6806666930788197
0.08585858585858586,1.6890242539229803
0.08686868686868687,1.6919172557536513
0.08787878787878788,1.6835596949094906
0.08888888888888889,1.668451796460431
0.0898989898989899,1.6459506711107679
0.09090909090909091,1.620877988578286
0.09191919191919191,1.5964481953415088
0.09292929292929293,1.577161516470369
0.09393939393939393,1.5668752877390943
0.09494949494949495,1.565589509147685
0.09595959595959595,1.575232848583255
0.09696969696969697,1.5919479702715762
0.09797979797979799,1.6157348742126487
0.09898989898989899,1.6427362246322446
0.1,1.669416130403988
0.0,1.6928815896972083
0.00101010101010101,1.7099181560333818
0.00202020202020202,1.7195614954689518
0.0030303030303030303,1.7185971615253948
0.00404040404040404,1.7063822649070062
0.00505050505050505,1.6845240288530476
0.006060606060606061,1.6581655677291565
0.007070707070707071,1.6289141047745943
0.00808080808080808,1.6022341990028508
0.00909090909090909,1.5813402968924493
0.0101010101010101,1.5700897342176177
0.011111111111111112,1.57041117886547
0.012121212121212121,1.578125850413926
0.013131313131313131,1.5932337488629855
0.014141414141414142,1.6128418723819777
0.015151515151515152,1.6359858870273456
0.01616161616161616,1.6591299016727135
0.01717171717171717,1.6797023591352627
0.01818181818181818,1.6941673682886176
0.01919191919191919,1.6996319273021072
0.0202020202020202,1.6941673682886176
0.021212121212121213,1.6803452484309673
0.022222222222222223,1.6597727909684181
0.023232323232323233,1.6359858870273456
0.024242424242424242,1.6096274259034544
0.025252525252525252,1.5874477452016436
0.026262626262626262,1.5716969574568793
0.02727272727272727,1.567518177034799
0.028282828282828285,1.5745899592875503
0.029292929292929294,1.5896978577366099
0.030303030303030304,1.610270315199159
0.031313131313131314,1.633414329844527
0.03232323232323232,1.6559154551941901
0.03333333333333333,1.673273466178216
0.03434343434343434,1.6864526967401616
0.03535353535353535,1.6951317022321746
0.03636363636363636,1.697381814767141
0.03737373737373737,1.6932030343450606
0.03838383838383838,1.680023803783115
0.03939393939393939,1.6594513463205658
0.0404040404040404,1.6337357744923793
0.04141414141414142,1.6067344240727834
0.04242424242424243,1.583911854075268
0.043434343434343436,1.5700897342176177
0.044444444444444446,1.5678396216826513
0.045454545454545456,1.5774829611182213
0.046464646464646465,1.5948409721022472
0.047474747474747475,1.617984986747615
0.048484848484848485,1.6424147799843922
0.049494949494949494,1.6671660178690217
0.050505050505050504,1.6883813646272756
0.051515151515151514,1.7028463737806305
0.052525252525252523,1.7112039346247911
0.05353535353535353,1.7115253792726435
0.05454545454545454,1.7025249291327782
0.05555555555555555,1.686774141388014
0.05656565656565657,1.6639515713904984
0.05757575757575758,1.636307331675198
0.05858585858585859,1.610270315199159
0.0595959595959596,1.5900193023844622
0.06060606060606061,1.579090184357483
0.06161616161616162,1.5778044057660736
0.06262626262626263,1.5864834112580866
0.06363636363636363,1.6038414222421125
0.06464646464646465,1.625699658296071
0.06565656565656566,1.6488436729414389
0.06666666666666667,1.6716662429389544
0.06767676767676768,1.6909529218100943
0.06868686868686869,1.7005962612456642
0.0696969696969697,1.7012391505413689
0.0707070707070707,1.692560145049356
0.07171717171717172,1.6748806894174777
0.07272727272727272,1.6507723408285528
0.07373737373737374,1.6231281011132523
0.07474747474747474,1.5974125292850658
0.07575757575757576,1.5745899592875503
0.07676767676767676,1.5607678394299
0.07777777777777778,1.5581962822470814
0.07878787878787878,1.5662323984433897
0.0797979797979798,1.582947520131711
0.0808080808080808,1.6060915347770788
0.08181818181818182,1.631485661957413
0.08282828282828283,1.6546296766027808
0.08383838383838384,1.6735949108260684
0.08484848484848485,1.6832382502616383
0.08585858585858586,1.6854883627966046
0.08686868686868687,1.6822739163180813
0.08787878787878788,1.6719876875868067
0.08888888888888889,1.6533438980113715
0.0898989898989899,1.627628326183185
0.09090909090909091,1.6019127543549985
0.09191919191919191,1.579090184357483
0.09292929292929293,1.5639822859084234
0.09393939393939393,1.556910503655672
0.09494949494949495,1.559803505486343
0.09595959595959595,1.572339846752584
0.09696969696969697,1.5913050809758715
0.09797979797979799,1.6154134295647964
0.09898989898989899,1.64209333533654
0.1,1.66555879462976
0.0,1.6870955860358663
0.00101010101010101,1.7034892630763352
0.00202020202020202,1.7134540471597575
0.0030303030303030303,1.7166684936382808
0.00404040404040404,1.7073465988505632
0.00505050505050505,1.6861312520923093
0.006060606060606061,1.6568797891377471
0.007070707070707071,1.6263425475917757
0.00808080808080808,1.5980554185807705
0.00909090909090909,1.575232848583255
0.0101010101010101,1.5623750626691617
0.011111111111111112,1.5604463947820477
0.012121212121212121,1.567518177034799
0.013131313131313131,1.5835904094274156
0.014141414141414142,1.6038414222421125
0.015151515151515152,1.624735324352514
0.01616161616161616,1.6440220032236539
0.01717171717171717,1.6613800142076798
0.01818181818181818,1.6748806894174777
0.01919191919191919,1.6822739163180813
0.0202020202020202,1.6803452484309673
0.021212121212121213,1.6681303518125787
0.022222222222222223,1.6494865622371435
0.023232323232323233,1.626663992239628
0.024242424242424242,1.6048057561856695
0.025252525252525252,1.586804855905939
0.026262626262626262,1.5726612914004363
0.02727272727272727,1.567518177034799
0.028282828282828285,1.5716969574568793
0.029292929292929294,1.5842332987231202
0.030303030303030304,1.6028770882985555
0.031313131313131314,1.6279497708310373
0.03232323232323232,1.6536653426592238
0.03333333333333333,1.6768093573045917
0.03434343434343434,1.6938459236407652
0.03535353535353535,1.7054179309634492
0.03636363636363636,1.7083109327941202
0.03737373737373737,1.7012391505413689
0.03838383838383838,1.685809807444457
0.03939393939393939,1.66555879462976
0.0404040404040404,1.6404861120972782
0.04141414141414142,1.6173420974519104
0.04242424242424243,1.5996626418200321
0.043434343434343436,1.5896978577366099
0.044444444444444446,1.586804855905939
0.045454545454545456,1.5909836363280192
0.046464646464646465,1.5999840864678845
0.047474747474747475,1.6134847616776824
0.048484848484848485,1.6301998833660036
0.049494949494949494,1.6456292264629155
0.050505050505050504,1.6584870123770088
0.051515151515151514,1.669416130403988
0.052525252525252523,1.6774522466002963
0.05353535353535353,1.679059469839558
0.05454545454545454,1.6707019089953974
0.05555555555555555,1.6552725658984855
0.05656565656565657,1.6330928851966746
0.05757575757575758,1.6070558687206358
0.05858585858585859,1.5842332987231202
0.0595959595959596,1.5688039556262083
0.06060606060606061,1.564625175204128
0.06161616161616162,1.5716969574568793
0.06262626262626263,1.5887335237930529
0.06363636363636363,1.6115560937905684
0.06464646464646465,1.6385574442101642
0.06565656565656566,1.6633086820947938
0.06666666666666667,1.6842025842051953
0.06767676767676768,1.6970603701192886
0.06868686868686869,1.7028463737806305
0.0696969696969697,1.7022034844849259
0.0707070707070707,1.695453146880027
0.07171717171717172,1.6845240288530476
0.07272727272727272,1.6649159053340554
0.07373737373737374,1.6379145549144596
0.07474747474747474,1.607377313368488
0.07575757575757576,1.58005451830104
0.07676767676767676,1.5623750626691617
0.07777777777777778,1.554017501825001
0.07878787878787878,1.5562676143599674
0.0797979797979798,1.5700897342176177
0.0808080808080808,1.5932337488629855
0.08181818181818182,1.6224852118175477
0.08282828282828283,1.6536653426592238
0.08383838383838384,1.683881139557343
0.08484848484848485,1.7118468239204958
0.08585858585858586,1.733383615326602
0.08686868686868687,1.7475271798321046
0.08787878787878788,1.7542775174370036
0.08888888888888889,1.752670294197742
0.0898989898989899,1.742062620818615
0.09090909090909091,1.722775941947475
0.09191919191919191,1.6938459236407652
0.09292929292929293,1.6594513463205658
0.09393939393939393,1.6279497708310373
0.09494949494949495,1.6060915347770788
0.09595959595959595,1.5970910846372135
0.09696969696969697,1.5983768632286228
0.09797979797979799,1.6057700901292264
0.09898989898989899,1.6173420974519104
0.1,1.6337357744923793
0.0,1.6504508961807005
0.00101010101010101,1.668451796460431
0.00202020202020202,1.6822739163180813
0.0030303030303030303,1.6851669181487523
0.00404040404040404,1.677130801952444
0.00505050505050505,1.6584870123770088
0.006060606060606061,1.6327714405488223
0.007070707070707071,1.6035199775942601
0.00808080808080808,1.5797330736531876
0.00909090909090909,1.5639822859084234
0.0101010101010101,1.5607678394299
0.011111111111111112,1.5697682895697653
0.012121212121212121,1.5884120791452006
0.013131313131313131,1.6118775384384207
0.014141414141414142,1.6337357744923793
0.015151515151515152,1.6533438980113715
0.01616161616161616,1.6716662429389544
0.01717171717171717,1.6854883627966046
0.01818181818181818,1.69448881293647
0.01919191919191919,1.6941673682886176
0.0202020202020202,1.6848454735009
0.021212121212121213,1.664594460686203
0.022222222222222223,1.638235999562312
0.023232323232323233,1.61316331702983
0.024242424242424242,1.5919479702715762
0.025252525252525252,1.5784472950617783
0.026262626262626262,1.577161516470369
0.02727272727272727,1.5890549684409052
0.028282828282828285,1.6173420974519104
0.029292929292929294,1.6555940105463378
0.030303030303030304,1.6951317022321746
0.031313131313131314,1.7243831651867367
0.03232323232323232,1.7452770672971383
0.03333333333333333,1.7549204067327082
0.03434343434343434,1.7555632960284129
0.03535353535353535,1.752670294197742
0.03636363636363636,1.7491344030713663
0.03737373737373737,1.7443127333535813
0.03838383838383838,1.7407768422272056
0.03939393939393939,1.7298477242002264
0.0404040404040404,1.7115253792726435
0.04141414141414142,1.6941673682886176
0.04242424242424243,1.6813095823745243
0.043434343434343436,1.6793809144874103
0.044444444444444446,1.692560145049356
0.045454545454545456,1.7185971615253948
0.046464646464646465,1.7552418513805605
0.047474747474747475,1.8015298806712963
0.048484848484848485,1.8491036885534413
0.049494949494949494,1.888641380239278
0.050505050505050504,1.9076066144625656
0.051515151515151514,1.910821060941089
0.052525252525252523,1.903106389392633
0.05353535353535353,1.8761050389730372
0.05454545454545454,1.8327100115129724
0.05555555555555555,1.7729213070124388
0.05656565656565657,1.6986675933585502
0.05757575757575758,1.612198983086273
0.05858585858585859,1.5244445942225866
0.0595959595959596,1.4537267716950737
0.06060606060606061,1.408403076347895
0.06161616161616162,1.3897592867724597
0.06262626262626263,1.3907236207160167
0.06363636363636363,1.4096888549393043
0.06464646464646465,1.442476209020242
0.06565656565656566,1.4771922309882939
0.06666666666666667,1.506443693942856
0.06767676767676768,1.531516376475338
0.06868686868686869,1.5591606161906384
0.0696969696969697,1.5948409721022472
0.0707070707070707,1.6375931102666073
0.07171717171717172,1.673273466178216
0.07272727272727272,1.687738475331571
0.07373737373737374,1.6748806894174777
0.07474747474747474,1.6356644423794933
0.07575757575757576,1.5874477452016436
0.07676767676767676,1.5485529428115115
0.07777777777777778,1.528623374644667
0.07878787878787878,1.521873037039768
0.0797979797979798,1.528623374644667
0.0808080808080808,1.5424454945023172
0.08181818181818182,1.5543389464728534
0.08282828282828283,1.5659109537955374
0.08383838383838384,1.574268514639698
0.08484848484848485,1.581983186188154
0.08585858585858586,1.5941980828065425
0.08686868686868687,1.609305981255602
0.08787878787878788,1.621842322521843
0.08888888888888889,1.629556994070299
0.0898989898989899,1.6350215530837886
0.09090909090909091,1.636307331675198
0.09191919191919191,1.6321285512531176
0.09292929292929293,1.6234495457611047
0.09393939393939393,1.6202350992825814
0.09494949494949495,1.6269854368874803
0.09595959595959595,1.6408075567451306
0.09696969696969697,1.6530224533635192
0.09797979797979799,1.6591299016727135
0.09898989898989899,1.6613800142076798
0.1,1.6613800142076798
0.0,1.662665792799089
0.00101010101010101,1.6588084570248611
0.00202020202020202,1.6469150050543249
0.0030303030303030303,1.6292355494224466
0.00404040404040404,1.6048057561856695
0.00505050505050505,1.574268514639698
0.006060606060606061,1.5488743874593638
0.007070707070707071,1.531516376475338
0.00808080808080808,1.5154441440827213
0.00909090909090909,1.4987290223944
0.0101010101010101,1.4881213490152732
0.011111111111111112,1.4900500169023871
0.012121212121212121,1.504515026055742
0.013131313131313131,1.5318378211231902
0.014141414141414142,1.5681610663305037
0.015151515151515152,1.6041628668899648
0.01616161616161616,1.6366287763230503
0.01717171717171717,1.6623443481512368
0.01818181818181818,1.6832382502616383
0.01919191919191919,1.7079894881462678
0.0202020202020202,1.7472057351842523
0.021212121212121213,1.786743426870089
0.022222222222222223,1.8163163344725035
0.023232323232323233,1.8217808934859931
0.024242424242424242,1.792529430531431
0.025252525252525252,1.7423840654664673
0.026262626262626262,1.680988137726672
0.02727272727272727,1.618949320691172
0.028282828282828285,1.5726612914004363
0.029292929292929294,1.5434098284458742
0.030303030303030304,1.525730372813996
0.031313131313131314,1.5241231495747343
0.03232323232323232,1.5334450443624519
0.03333333333333333,1.5459813856286928
0.03434343434343434,1.5604463947820477
0.03535353535353535,1.574268514639698
0.03636363636363636,1.5797330736531876
0.03737373737373737,1.5803759629488923
0.03838383838383838,1.5816617415403016
0.03939393939393939,1.6015913097071461
0.0404040404040404,1.630521328013856
0.04141414141414142,1.6565583444898948
0.04242424242424243,1.674237800121773
0.043434343434343436,1.6803452484309673
0.044444444444444446,1.6816310270223767
0.045454545454545456,1.676166468008887
0.046464646464646465,1.6662016839254647
0.047474747474747475,1.6559154551941901
0.048484848484848485,1.6552725658984855
0.049494949494949494,1.6671660178690217
0.050505050505050504,1.679059469839558
0.051515151515151514,1.680023803783115
0.052525252525252523,1.6729520215303637
0.05353535353535353,1.6549511212506332
0.05454545454545454,1.6279497708310373
0.05555555555555555,1.5961267506936565
0.05656565656565657,1.559803505486343
0.05757575757575758,1.5263732621097006
0.05858585858585859,1.4984075777465478
0.0595959595959596,1.4800852328189649
0.06060606060606061,1.4730134505662136
0.06161616161616162,1.4778351202839985
0.06262626262626263,1.4961574652115814
0.06363636363636363,1.522837370983325
0.06464646464646465,1.5527317232335918
0.06565656565656566,1.5816617415403016
0.06666666666666667,1.6096274259034544
0.06767676767676768,1.6340572191402316
0.06868686868686869,1.6536653426592238
0.0696969696969697,1.66555879462976
0.0707070707070707,1.6668445732211694
0.07171717171717172,1.6552725658984855
0.07272727272727272,1.634378663788084
0.07373737373737374,1.61316331702983
0.07474747474747474,1.5948409721022472
0.07575757575757576,1.5755542932311073
0.07676767676767676,1.5585177268949337
0.07777777777777778,1.5488743874593638
0.07878787878787878,1.5498387214029208
0.0797979797979798,1.563660841260571
0.0808080808080808,1.5884120791452006
0.08181818181818182,1.6192707653390244
0.08282828282828283,1.6510937854764052
0.08383838383838384,1.680023803783115
0.08484848484848485,1.7031678184284829
0.08585858585858586,1.7205258294125088
0.08686868686868687,1.728561945608817
0.08787878787878788,1.7160256043425761
0.08888888888888889,1.688702809275128
0.0898989898989899,1.6533438980113715
0.09090909090909091,1.6138062063255347
0.09191919191919191,1.5768400718225166
0.09292929292929293,1.5459813856286928
0.09393939393939393,1.5292662639403716
0.09494949494949495,1.5289448192925192
0.09595959595959595,1.5482314981636591
0.09696969696969697,1.5794116290053353
0.09797979797979799,1.6144490956212394
0.09898989898989899,1.6446648925193585
0.1,1.6678089071647264
0.0,1.685809807444457
0.00101010101010101,1.698346148710698
0.00202020202020202,1.7041321523720399
0.0030303030303030303,1.7022034844849259
0.00404040404040404,1.6893456985708326
0.00505050505050505,1.6649159053340554
0.006060606060606061,1.6366287763230503
0.007070707070707071,1.607377313368488
0.00808080808080808,1.5842332987231202
0.00909090909090909,1.5700897342176177
0.0101010101010101,1.5671967323869467
0.011111111111111112,1.575232848583255
0.012121212121212121,1.5938766381586902
0.013131313131313131,1.6173420974519104
0.014141414141414142,1.6427362246322446
0.015151515151515152,1.6671660178690217
0.01616161616161616,1.689667143218685
0.01717171717171717,1.7057393756113015
0.01818181818181818,1.7134540471597575
0.01919191919191919,1.7112039346247911
0.0202020202020202,1.6996319273021072
0.021212121212121213,1.6864526967401616
0.022222222222222223,1.666523128573317
0.023232323232323233,1.6366287763230503
0.024242424242424242,1.6035199775942601
0.025252525252525252,1.572339846752584
0.026262626262626262,1.5469457195722498
0.02727272727272727,1.5340879336581565
0.028282828282828285,1.5340879336581565
0.029292929292929294,1.5427669391501695
0.030303030303030304,1.5610892840777524
0.031313131313131314,1.586804855905939
0.03232323232323232,1.620877988578286
0.03333333333333333,1.6584870123770088
0.03434343434343434,1.69448881293647
0.03535353535353535,1.7279190563131124
0.03636363636363636,1.7484915137756616
0.03737373737373737,1.7539560727891512
0.03838383838383838,1.73724095110083
0.03939393939393939,1.6977032594149932
0.0404040404040404,1.6459506711107679
0.04141414141414142,1.5929123042151332
0.04242424242424243,1.5495172767550685
0.043434343434343436,1.5193014798569493
0.044444444444444446,1.5058008046471514
0.045454545454545456,1.5080509171821177
0.046464646464646465,1.5225159263354726
0.047474747474747475,1.5466242749243975
0.048484848484848485,1.576197182526812
0.049494949494949494,1.6076987580163404
0.050505050505050504,1.6398432228015736
0.051515151515151514,1.669416130403988
0.052525252525252523,1.6890242539229803
0.05353535353535353,1.6948102575843222
0.05454545454545454,1.686774141388014
0.05555555555555555,1.668451796460431
0.05656565656565657,1.6424147799843922
0.05757575757575758,1.614127650973387
0.05858585858585859,1.584876188018825
0.0595959595959596,1.5614107287256047
0.06060606060606061,1.5456599409808405
0.06161616161616162,1.5424454945023172
0.06262626262626263,1.5517673892900348
0.06363636363636363,1.5681610663305037
0.06464646464646465,1.5890549684409052
0.06565656565656566,1.6118775384384207
0.06666666666666667,1.6369502209709026
0.06767676767676768,1.6588084570248611
0.06868686868686869,1.6764879126567394
0.0696969696969697,1.6899885878665373
0.0707070707070707,1.6989890380064026
0.07171717171717172,1.6996319273021072
0.07272727272727272,1.691595811105799
0.07373737373737374,1.6764879126567394
0.07474747474747474,1.6507723408285528
0.07575757575757576,1.6192707653390244
0.07676767676767676,1.5941980828065425
0.07777777777777778,1.5851976326666772
0.07878787878787878,1.5938766381586902
0.0797979797979798,1.6147705402690917
0.0808080808080808,1.6417718906886876
0.08181818181818182,1.66555879462976
0.08282828282828283,1.680023803783115
0.08383838383838384,1.682916805613786
0.08484848484848485,1.6768093573045917
0.08585858585858586,1.6668445732211694
0.08686868686868687,1.6572012337855995
0.08787878787878788,1.6449863371672109
0.08888888888888889,1.6269854368874803
0.0898989898989899,1.6028770882985555
0.09090909090909091,1.5726612914004363
0.09191919191919191,1.5424454945023172
0.09292929292929293,1.5183371459133923
0.09393939393939393,1.5058008046471514
0.09494949494949495,1.507408027886413
0.09595959595959595,1.5205872584483586
0.09696969696969697,1.5347308229538612
0.09797979797979799,1.5504816106986254
0.09898989898989899,1.5749114039354026
0.1,1.612198983086273
0.0,1.6543082319549285
0.00101010101010101,1.692560145049356
0.00202020202020202,1.722775941947475
0.0030303030303030303,1.7404553975793533
0.00404040404040404,1.7417411761707626
0.00505050505050505,1.7224544972996227
0.006060606060606061,1.687738475331571
0.007070707070707071,1.6449863371672109
0.00808080808080808,1.6035199775942601
0.00909090909090909,1.5668752877390943
0.0101010101010101,1.5405168266152032
0.011111111111111112,1.5273375960532576
0.012121212121212121,1.52765904070111
0.013131313131313131,1.5395524926716462
0.014141414141414142,1.5607678394299
0.015151515151515152,1.585840521962382
0.01616161616161616,1.608341647312045
0.01717171717171717,1.6279497708310373
0.01818181818181818,1.641129001392983
0.01919191919191919,1.6514152301242575
0.0202020202020202,1.6562368998420425
0.021212121212121213,1.6507723408285528
0.022222222222222223,1.6408075567451306
0.023232323232323233,1.6289141047745943
0.024242424242424242,1.6154134295647964
0.025252525252525252,1.6019127543549985
0.026262626262626262,1.5919479702715762
0.02727272727272727,1.5861619666102342
0.028282828282828285,1.5845547433709726
0.029292929292929294,1.5887335237930529
0.030303030303030304,1.6009484204114415
0.031313131313131314,1.617984986747615
0.03232323232323232,1.6398432228015736
0.03333333333333333,1.6600942356162705
0.03434343434343434,1.6707019089953974
0.03535353535353535,1.673273466178216
0.03636363636363636,1.6639515713904984
0.03737373737373737,1.6437005585758016
0.03838383838383838,1.6138062063255347
0.03939393939393939,1.5826260754838586
0.0404040404040404,1.552088833937887
0.04141414141414142,1.5263732621097006
0.04242424242424243,1.5096581404213794
0.043434343434343436,1.501622024225071
0.044444444444444446,1.503550692112185
0.045454545454545456,1.516087033378426
0.046464646464646465,1.5353737122495659
0.047474747474747475,1.5604463947820477
0.048484848484848485,1.5880906344973482
0.049494949494949494,1.6154134295647964
0.050505050505050504,1.6385574442101642
0.051515151515151514,1.6555940105463378
0.052525252525252523,1.6652373499819078
0.05353535353535353,1.668451796460431
0.05454545454545454,1.6633086820947938
0.05555555555555555,1.6482007836457342
0.05656565656565657,1.621842322521843
0.05757575757575758,1.5903407470323145
0.05858585858585859,1.5623750626691617
0.0595959595959596,1.5414811605587602
0.06060606060606061,1.5311949318274856
0.06161616161616162,1.5331235997145995
0.06262626262626263,1.5459813856286928
0.06363636363636363,1.568482510978356
0.06464646464646465,1.5938766381586902
0.06565656565656566,1.618949320691172
0.06666666666666667,1.6404861120972782
0.06767676767676768,1.6604156802641228
0.06868686868686869,1.6755235787131824
0.0696969696969697,1.6793809144874103
0.0707070707070707,1.670380464347545
0.07171717171717172,1.6520581194199622
0.07272727272727272,1.6308427726617083
0.07373737373737374,1.6060915347770788
0.07474747474747474,1.581983186188154
0.07575757575757576,1.5630179519648664
0.07676767676767676,1.5524102785857394
0.07777777777777778,1.5562676143599674
0.07878787878787878,1.5707326235133223
0.0797979797979798,1.5874477452016436
0.0808080808080808,1.6060915347770788
0.08181818181818182,1.6224852118175477
0.08282828282828283,1.634378663788084
0.08383838383838384,1.6433791139279492
0.08484848484848485,1.6549511212506332
0.08585858585858586,1.6662016839254647
0.08686868686868687,1.674237800121773
0.08787878787878788,1.676166468008887
0.08888888888888889,1.6697375750518404
0.0898989898989899,1.6482007836457342
0.09090909090909091,1.6163777635083534
0.09191919191919191,1.5787687397096306
0.09292929292929293,1.5469457195722498
0.09393939393939393,1.5279804853489622
0.09494949494949495,1.524766038870439
0.09595959595959595,1.5369809354888275
0.09696969696969697,1.558839171542786
0.09797979797979799,1.585840521962382
0.09898989898989899,1.6176635420997627
0.1,1.64209333533654
0.0,1.6584870123770088
0.00101010101010101,1.6633086820947938
0.00202020202020202,1.6600942356162705
0.0030303030303030303,1.6478793389978819
0.00404040404040404,1.6292355494224466
0.00505050505050505,1.6076987580163404
0.006060606060606061,1.582947520131711
0.007070707070707071,1.554981835768558
0.00808080808080808,1.526694706757553
0.00909090909090909,1.5061222492950037
0.0101010101010101,1.500657690281514
0.011111111111111112,1.510301029717084
0.012121212121212121,1.5350522676017135
0.013131313131313131,1.5726612914004363
0.014141414141414142,1.615091984916944
0.015151515151515152,1.6533438980113715
0.01616161616161616,1.6822739163180813
0.01717171717171717,1.7009177058935165
0.01818181818181818,1.7108824899769388
0.01919191919191919,1.7057393756113015
0.0202020202020202,1.688702809275128
0.021212121212121213,1.661701458855532
0.022222222222222223,1.6292355494224466
0.023232323232323233,1.5954838613979518
0.024242424242424242,1.5633393966127187
0.025252525252525252,1.5347308229538612
0.026262626262626262,1.5167299226741306
0.02727272727272727,1.5099795850692317
0.028282828282828285,1.5167299226741306
0.029292929292929294,1.5373023801366799
0.030303030303030304,1.5639822859084234
0.031313131313131314,1.5929123042151332
0.03232323232323232,1.619913654634729
0.03333333333333333,1.6433791139279492
0.03434343434343434,1.6604156802641228
0.03535353535353535,1.6697375750518404
0.03636363636363636,1.6707019089953974
0.03737373737373737,1.6649159053340554
0.03838383838383838,1.6523795640678145
0.03939393939393939,1.6398432228015736
0.0404040404040404,1.6228066564654
0.04141414141414142,1.5996626418200321
0.04242424242424243,1.5736256253439933
0.043434343434343436,1.552088833937887
0.044444444444444446,1.5414811605587602
0.045454545454545456,1.5446956070372835
0.046464646464646465,1.5575533929513767
0.047474747474747475,1.574268514639698
0.048484848484848485,1.5932337488629855
0.049494949494949494,1.6138062063255347
0.050505050505050504,1.633414329844527
0.051515151515151514,1.6491651175892912
0.052525252525252523,1.6604156802641228
0.05353535353535353,1.6658802392776124
0.05454545454545454,1.664594460686203
0.05555555555555555,1.6539867873070762
0.05656565656565657,1.630521328013856
0.05757575757575758,1.5954838613979518
0.05858585858585859,1.5562676143599674
0.0595959595959596,1.5234802602790296
0.06060606060606061,1.5051579153514467
0.06161616161616162,1.502586358168628
0.06262626262626263,1.5115868083084933
0.06363636363636363,1.5328021550667472
0.06464646464646465,1.5623750626691617
0.06565656565656566,1.5932337488629855
0.06666666666666667,1.618949320691172
0.06767676767676768,1.6356644423794933
0.06868686868686869,1.6453077818150632
0.0696969696969697,1.6549511212506332
0.0707070707070707,1.661701458855532
0.07171717171717172,1.6671660178690217
0.07272727272727272,1.668451796460431
0.07373737373737374,1.6604156802641228
0.07474747474747474,1.641129001392983
0.07575757575757576,1.6186278760433197
0.07676767676767676,1.5980554185807705
0.07777777777777778,1.5842332987231202
0.07878787878787878,1.5787687397096306
0.0797979797979798,1.5803759629488923
0.0808080808080808,1.5861619666102342
0.08181818181818182,1.5935551935108379
0.08282828282828283,1.6019127543549985
0.08383838383838384,1.612198983086273
0.08484848484848485,1.623770990408957
0.08585858585858586,1.6311642173095606
0.08686868686868687,1.629556994070299
0.08787878787878788,1.617984986747615
0.08888888888888889,1.5990197525243275
0.0898989898989899,1.5774829611182213
0.09090909090909091,1.5553032804164104
0.09191919191919191,1.5331235997145995
0.09292929292929293,1.5157655887305737
0.09393939393939393,1.5067651385907084
0.09494949494949495,1.5109439190127887
0.09595959595959595,1.528623374644667
0.09696969696969697,1.5565890590078197
0.09797979797979799,1.5896978577366099
0.09898989898989899,1.620877988578286
0.1,1.6475578943500295
0.0,1.668451796460431
0.00101010101010101,1.681952471670229
0.00202020202020202,1.6874170306837186
0.0030303030303030303,1.6848454735009
0.00404040404040404,1.6745592447696254
0.00505050505050505,1.6527010087156668
0.006060606060606061,1.6183064313954674
0.007070707070707071,1.5787687397096306
0.00808080808080808,1.5427669391501695
0.00909090909090909,1.5119082529563457
0.0101010101010101,1.4935859080287628
0.011111111111111112,1.4919786847895011
0.012121212121212121,1.506443693942856
0.013131313131313131,1.5283019299968146
0.014141414141414142,1.5565890590078197
0.015151515151515152,1.5884120791452006
0.01616161616161616,1.6195922099868767
0.01717171717171717,1.6478793389978819
0.01818181818181818,1.6716662429389544
0.01919191919191919,1.689667143218685
0.0202020202020202,1.6932030343450606
0.021212121212121213,1.680023803783115
0.022222222222222223,1.6568797891377471
0.023232323232323233,1.624735324352514
0.024242424242424242,1.5874477452016436
0.025252525252525252,1.5517673892900348
0.026262626262626262,1.524766038870439
0.02727272727272727,1.511265363660641
0.028282828282828285,1.511265363660641
0.029292929292929294,1.521873037039768
0.030303030303030304,1.5395524926716462
0.031313131313131314,1.562696507317014
0.03232323232323232,1.5884120791452006
0.03333333333333333,1.6166992081562057
0.03434343434343434,1.64209333533654
0.03535353535353535,1.6623443481512368
0.03636363636363636,1.672309132234659
0.03737373737373737,1.6719876875868067
0.03838383838383838,1.6613800142076798
0.03939393939393939,1.6449863371672109
0.0404040404040404,1.6234495457611047
0.04141414141414142,1.6015913097071461
0.04242424242424243,1.5864834112580866
0.043434343434343436,1.5778044057660736
0.044444444444444446,1.5787687397096306
0.045454545454545456,1.5884120791452006
0.046464646464646465,1.6019127543549985
0.047474747474747475,1.620877988578286
0.048484848484848485,1.641129001392983
0.049494949494949494,1.6572012337855995
0.050505050505050504,1.6687732411082834
0.051515151515151514,1.676166468008887
0.052525252525252523,1.678095135896001
0.05353535353535353,1.6729520215303637
0.05454545454545454,1.6578441230813041
0.05555555555555555,1.635342997731641
0.05656565656565657,1.6051272008335218
0.05757575757575758,1.571375512809027
0.05858585858585859,1.5405168266152032
0.0595959595959596,1.5205872584483586
0.06060606060606061,1.515122699434869
0.06161616161616162,1.5273375960532576
0.06262626262626263,1.556910503655672
0.06363636363636363,1.5909836363280192
0.06464646464646465,1.6202350992825814
0.06565656565656566,1.6443434478715062
0.06666666666666667,1.6613800142076798
0.06767676767676768,1.673273466178216
0.06868686868686869,1.6797023591352627
0.0696969696969697,1.6806666930788197
0.0707070707070707,1.6739163554739207
0.07171717171717172,1.6575226784334518
0.07272727272727272,1.6350215530837886
0.07373737373737374,1.610270315199159
0.07474747474747474,1.5826260754838586
0.07575757575757576,1.5553032804164104
0.07676767676767676,1.5385881587280892
0.07777777777777778,1.530552042531781
0.07878787878787878,1.5328021550667472
0.0797979797979798,1.5466242749243975
0.0808080808080808,1.5678396216826513
0.08181818181818182,1.5951624167500995
0.08282828282828283,1.6244138797046617
0.08383838383838384,1.6536653426592238
0.08484848484848485,1.6735949108260684
0.08585858585858586,1.6842025842051953
0.08686868686868687,1.6890242539229803
0.08787878787878788,1.6803452484309673
0.08888888888888889,1.6555940105463378
0.0898989898989899,1.623770990408957
0.09090909090909091,1.5851976326666772
0.09191919191919191,1.5485529428115115
0.09292929292929293,1.517051367321983
0.09393939393939393,1.4987290223944
0.09494949494949495,1.4926215740852058
0.09595959595959595,1.4971217991551384
0.09696969696969697,1.5125511422520503
0.09797979797979799,1.5373023801366799
0.09898989898989899,1.568482510978356
0.1,1.6022341990028508
0.0,1.6311642173095606
0.00101010101010101,1.6549511212506332
0.00202020202020202,1.6745592447696254
0.0030303030303030303,1.6903100325143896
0.00404040404040404,1.696417480823584
0.00505050505050505,1.6851669181487523
0.006060606060606061,1.6594513463205658
0.007070707070707071,1.6263425475917757
0.00808080808080808,1.5925908595672809
0.00909090909090909,1.564625175204128
0.0101010101010101,1.5482314981636591
0.011111111111111112,1.5450170516851358
0.012121212121212121,1.5565890590078197
0.013131313131313131,1.5768400718225166
0.014141414141414142,1.6031985329464078
0.015151515151515152,1.639200333505869
0.01616161616161616,1.6797023591352627
0.01717171717171717,1.7163470489904284
0.01818181818181818,1.743026954762172
0.01919191919191919,1.7597420764504932
0.0202020202020202,1.7690639712382108
0.021212121212121213,1.7642423015204258
0.022222222222222223,1.7468842905364
0.023232323232323233,1.7214901633560658
0.024242424242424242,1.6948102575843222
0.025252525252525252,1.667487462516874
0.026262626262626262,1.641129001392983
0.02727272727272727,1.625699658296071
0.028282828282828285,1.626663992239628
0.029292929292929294,1.637271665618755
0.030303030303030304,1.6478793389978819
0.031313131313131314,1.6575226784334518
0.03232323232323232,1.666523128573317
0.03333333333333333,1.6649159053340554
0.03434343434343434,1.6562368998420425
0.03535353535353535,1.6469150050543249
0.03636363636363636,1.6433791139279492
0.03737373737373737,1.640164667449426
0.03838383838383838,1.6321285512531176
0.03939393939393939,1.6231281011132523
0.0404040404040404,1.61316331702983
0.04141414141414142,1.6041628668899648
0.04242424242424243,1.5938766381586902
0.043434343434343436,1.5832689647795632
0.044444444444444446,1.5768400718225166
0.045454545454545456,1.576197182526812
0.046464646464646465,1.5768400718225166
0.047474747474747475,1.5784472950617783
0.048484848484848485,1.584876188018825
0.049494949494949494,1.5935551935108379
0.050505050505050504,1.6003055311157368
0.051515151515151514,1.6099488705513068
0.052525252525252523,1.620877988578286
0.05353535353535353,1.6228066564654
0.05454545454545454,1.6118775384384207
0.05555555555555555,1.5925908595672809
0.05656565656565657,1.5716969574568793
0.05757575757575758,1.5443741623894311
0.05858585858585859,1.514158365491312
0.0595959595959596,1.4900500169023871
0.06060606060606061,1.4787994542275555
0.06161616161616162,1.4839425685931928
0.06262626262626263,1.5096581404213794
0.06363636363636363,1.5504816106986254
0.06464646464646465,1.6060915347770788
0.06565656565656566,1.664594460686203
0.06666666666666667,1.719882940116804
0.06767676767676768,1.7777429767302237
0.06868686868686869,1.8282097864430398
0.0696969696969697,1.863247253058944
0.0707070707070707,1.8751407050294802
0.07171717171717172,1.857461249397602
0.07272727272727272,1.8147091112332419
0.07373737373737374,1.7529917388455942
0.07474747474747474,1.6816310270223767
0.07575757575757576,1.616056318860501
0.07676767676767676,1.559803505486343
0.07777777777777778,1.517051367321983
0.07878787878787878,1.500657690281514
0.0797979797979798,1.5164084780262783
0.0808080808080808,1.5488743874593638
0.08181818181818182,1.5806974075967446
0.08282828282828283,1.6118775384384207
0.08383838383838384,1.6517366747721098
0.08484848484848485,1.696417480823584
0.08585858585858586,1.7500987370149232
0.08686868686868687,1.8008869913755916
0.08787878787878788,1.8339957901043817
0.08888888888888889,1.8513538010884076
0.0898989898989899,1.8568183601018973
0.09090909090909091,1.849746577849146
0.09191919191919191,1.835281568695791
0.09292929292929293,1.8179235577117652
0.09393939393939393,1.804101437854115
0.09494949494949495,1.7931723198271357
0.09595959595959595,1.7861005375743844
0.09696969696969697,1.7748499748995528
0.09797979797979799,1.7677781926468015
0.09898989898989899,1.7709926391253248
0.1,1.7812788678565994
0.0,1.797351100249216
0.00101010101010101,1.8217808934859931
0.00202020202020202,1.8359244579914957
0.0030303030303030303,1.831424232921563
0.00404040404040404,1.8111732201068662
0.00505050505050505,1.7764571981388144
0.006060606060606061,1.749777292367071
0.007070707070707071,1.7385267296922393
0.00808080808080808,1.7375623957486823
0.00909090909090909,1.7481700691278093
0.0101010101010101,1.7835289803915657
0.011111111111111112,1.8282097864430398
0.012121212121212121,1.8661402548896149
0.013131313131313131,1.893463049957063
0.014141414141414142,1.9076066144625656
0.015151515151515152,1.9072851698147133
0.01616161616161616,1.887677046295721
0.01717171717171717,1.8664616995374672
0.01818181818181818,1.8529610243276693
0.01919191919191919,1.8558540261583403
0.0202020202020202,1.8786765961558558
0.021212121212121213,1.896356051787734
0.022222222222222223,1.8957131624920294
0.023232323232323233,1.8828553765779361
0.024242424242424242,1.8764264836208895
0.025252525252525252,1.8777122622122988
0.026262626262626262,1.8812481533386745
0.02727272727272727,1.889605714182835
0.028282828282828285,1.9169285092502832
0.029292929292929294,1.94682286150055
0.030303030303030304,1.9616093153017573
0.031313131313131314,1.9436084150220267
0.03232323232323232,1.912749728828203
0.03333333333333333,1.888641380239278
0.03434343434343434,1.8892842695349827
0.03535353535353535,1.9014991661533713
0.03636363636363636,1.9191786217852496
0.03737373737373737,1.9371795220649801
0.03838383838383838,1.9465014168526977
0.03939393939393939,1.9387867453042418
0.0404040404040404,1.9008562768576667
0.04141414141414142,1.845889242074918
0.04242424242424243,1.779028755321633
0.043434343434343436,1.6977032594149932
0.044444444444444446,1.6311642173095606
0.045454545454545456,1.5874477452016436
0.046464646464646465,1.584876188018825
0.047474747474747475,1.6244138797046617
0.048484848484848485,1.6977032594149932
0.049494949494949494,1.801208436023444
0.050505050505050504,1.9272147379815578
0.051515151515151514,2.034898695012089
0.052525252525252523,2.1168670802144334
0.05353535353535353,2.193049461755436
0.05454545454545454,2.250266609073151
0.05555555555555555,2.277589404140599
0.05656565656565657,2.2878756328718737
0.05757575757575758,2.289161411463283
0.05858585858585859,2.2885185221675783
0.0595959595959596,2.270517621887848
0.06060606060606061,2.2171578103443608
0.06161616161616162,2.133903646550607
0.06262626262626263,2.0384345861384645
0.06363636363636363,1.9471443061484024
0.06464646464646465,1.8577826940454543
0.06565656565656566,1.785779092926532
0.06666666666666667,1.7472057351842523
0.06767676767676768,1.7668138587032445
0.06868686868686869,1.8600328065804206
0.0696969696969697,2.0220409090979956
0.0707070707070707,2.19915691006463
0.07171717171717172,2.3859162504668348
0.07272727272727272,2.5778187052346766
0.07373737373737374,2.7533274829620495
0.07474747474747474,2.8764407830894925
0.07575757575757576,2.9317292625200935
0.07676767676767676,2.937193821533583
0.07777777777777778,2.9153355854796246
0.07878787878787878,2.87194055801956
0.0797979797979798,2.813759076758288
0.0808080808080808,2.725683243246749
0.08181818181818182,2.594533826922998
0.08282828282828283,2.3981311470852233
0.08383838383838384,2.149332989647519
0.08484848484848485,1.9014991661533713
0.08585858585858586,1.679059469839558
0.08686868686868687,1.507408027886413
0.08787878787878788,1.4186893050791696
0.08888888888888889,1.41322474606568
0.0898989898989899,1.4726920059183612
0.09090909090909091,1.5565890590078197
0.09191919191919191,1.6192707653390244
0.09292929292929293,1.6678089071647264
0.09393939393939393,1.740133952931501
0.09494949494949495,1.8195307809510268
0.09595959595959595,1.842996240244247
0.09696969696969697,1.8208165595424362
0.09797979797979799,1.8015298806712963
0.09898989898989899,1.7777429767302237
0.1,1.740133952931501
0.0,1.688702809275128
0.00101010101010101,1.6491651175892912
0.00202020202020202,1.6173420974519104
0.0030303030303030303,1.5835904094274156
0.00404040404040404,1.5475886088679545
0.00505050505050505,1.5029078028164804
0.006060606060606061,1.4601556646521203
0.007070707070707071,1.4357258714153431
0.00808080808080808,1.4344400928239338
0.00909090909090909,1.4534053270472214
0.0101010101010101,1.4829782346496359
0.011111111111111112,1.5283019299968146
0.012121212121212121,1.6273068815353326
0.013131313131313131,1.7967082109535113
0.014141414141414142,2.0027542302268557
0.015151515151515152,2.209764583443757
0.01616161616161616,2.3981311470852233
0.01717171717171717,2.5186728900298476
0.01818181818181818,2.5566033584764227
0.01919191919191919,2.508386661298573
0.0202020202020202,2.374665687792003
0.021212121212121213,2.207835915556643
0.022222222222222223,2.046792146982625
0.023232323232323233,1.8822124872822315
0.024242424242424242,1.7205258294125088
0.025252525252525252,1.5729827360482886
0.026262626262626262,1.448262212681584
0.02727272727272727,1.346364259312395
0.028282828282828285,1.2573240918572992
0.029292929292929294,1.1840347121469676
0.030303030303030304,1.1583191403187811
0.031313131313131314,1.1907850497518666
0.03232323232323232,1.253145311435219
0.03333333333333333,1.3743299436755478
0.03434343434343434,1.5418026052066125
0.03535353535353535,1.7057393756113015
0.03636363636363636,1.8510323564405553
0.03737373737373737,1.9664309850195423
0.03838383838383838,2.012719014310278
0.03939393939393939,1.9763957691029646
0.0404040404040404,1.8831768212257884
0.04141414141414142,1.7783858660259284
0.04242424242424243,1.6845240288530476
0.043434343434343436,1.5842332987231202
0.044444444444444446,1.4800852328189649
0.045454545454545456,1.419975083670579
0.046464646464646465,1.4595127753564157
0.047474747474747475,1.5649466198519804
0.048484848484848485,1.6588084570248611
0.049494949494949494,1.7031678184284829
0.050505050505050504,1.7279190563131124
0.051515151515151514,1.7375623957486823
0.052525252525252523,1.7243831651867367
0.05353535353535353,1.6854883627966046
0.05454545454545454,1.6086630919598974
0.05555555555555555,1.5241231495747343
0.05656565656565657,1.4614414432435296
0.05757575757575758,1.4402260964852758
0.05858585858585859,1.4881213490152732
0.0595959595959596,1.6298784387181513
0.06060606060606061,1.8558540261583403
0.06161616161616162,2.1297248661285266
0.06262626262626263,2.4125961562385783
0.06363636363636363,2.6687875405768864
0.06464646464646465,2.872262002667412
0.06565656565656566,2.9989111939212307
0.06666666666666667,3.0673789039137773
0.06767676767676768,3.0879513613763265
0.06868686868686869,3.058378453773912
0.0696969696969697,2.978017291810829
0.0707070707070707,2.884798343933653
0.07171717171717172,2.7758286083117127
0.07272727272727272,2.629571293538902
0.07373737373737374,2.5067794380593114
0.07474747474747474,2.4563126283464953
0.07575757575757576,2.4739920839783736
0.07676767676767676,2.4691704142605886
0.07777777777777778,2.3769158003269695
0.07878787878787878,2.2341943766805343
0.0797979797979798,2.07090049557155
0.0808080808080808,1.9268932933337055
0.08181818181818182,1.7947795430663973
0.08282828282828283,1.6462721157586202
0.08383838383838384,1.4804066774668172
0.08484848484848485,1.27950377255911
0.08585858585858586,1.0802080908906646
0.08686868686868687,0.9452013387926854
0.08787878787878788,0.8770550734479912
0.08888888888888889,0.8674117340124212
0.0898989898989899,0.9111282061203383
0.09090909090909091,1.02716972399503
0.09191919191919191,1.2078216160880402
0.09292929292929293,1.4135461907135323
0.09393939393939393,1.611234649142716
0.09494949494949495,1.7369195064529777
0.09595959595959595,1.7941366537706926
0.09696969696969697,1.8291741203865968
0.09797979797979799,1.8542468029190786
0.09898989898989899,1.8719262585509568
0.1,1.896356051787734
0.0,1.9149998413631693
0.00101010101010101,1.9240002915030345
0.00202020202020202,1.912749728828203
0.0030303030303030303,1.86131858517183
0.00404040404040404,1.7854576482786797
0.00505050505050505,1.6890242539229803
0.006060606060606061,1.5903407470323145
0.007070707070707071,1.5041935814078897
0.00808080808080808,1.4177249711356126
0.00909090909090909,1.3203272428363562
0.0101010101010101,1.2158577322843485
0.011111111111111112,1.1072094413102604
0.012121212121212121,1.003061375406105
0.013131313131313131,0.8940916397841647
0.014141414141414142,0.7957295775413513
0.015151515151515152,0.7497629928984679
0.01616161616161616,0.7799787897965871
0.01717171717171717,0.8911986379534937
0.01818181818181818,1.066064526385162
0.01919191919191919,1.2965403388952836
0.0202020202020202,1.571375512809027
0.021212121212121213,1.8491036885534413
0.022222222222222223,2.0638287133187987
0.023232323232323233,2.1817988990806043
0.024242424242424242,2.1965853528818116
0.025252525252525252,2.119438637397252
0.026262626262626262,1.9654666510759853
0.02727272727272727,1.7873863161657937
0.028282828282828285,1.6134847616776824
0.029292929292929294,1.4643344450742006
0.030303030303030304,1.3505430397344753
0.031313131313131314,1.3013620086130686
0.03232323232323232,1.336720919876825
0.03333333333333333,1.4591913307085633
0.03434343434343434,1.6883813646272756
0.03535353535353535,1.99921833910048
0.03636363636363636,2.3081266456865706
0.03737373737373737,2.533459343831055
0.03838383838383838,2.652072418888565
0.03939393939393939,2.653036752832122
0.0404040404040404,2.506457993411459
0.04141414141414142,2.2460878286510706
0.04242424242424243,1.905035057279747
0.043434343434343436,1.5263732621097006
0.044444444444444446,1.1663552565150894
0.045454545454545456,0.8645187321817502
0.046464646464646465,0.6427219251636416
0.047474747474747475,0.5128582874312997
0.048484848484848485,0.4533910275786184
0.049494949494949494,0.4495336918043904
0.050505050505050504,0.48199960123747587
0.051515151515151514,0.5421097503858618
0.052525252525252523,0.6282569160102867
0.05353535353535353,0.7414054320543073
0.05454545454545454,0.8757692948565818
0.05555555555555555,1.0274911686428823
0.05656565656565657,1.19399949623039
0.05757575757575758,1.3691868293099105
0.05858585858585859,1.5385881587280892
0.0595959595959596,1.6922387004015036
0.06060606060606061,1.8140662219375372
0.06161616161616162,1.8793194854515605
0.06262626262626263,1.8863912677043118
0.06363636363636363,1.8465321313706227
0.06464646464646465,1.7748499748995528
0.06565656565656566,1.6793809144874103
0.06666666666666667,1.5623750626691617
0.06767676767676768,1.4466549894423224
0.06868686868686869,1.3515073736780323
0.0696969696969697,1.2807895511505194
0.0707070707070707,1.2258225163677707
0.07171717171717172,1.1894992711604573
0.07272727272727272,1.1705340369371697
0.07373737373737374,1.1663552565150894
0.07474747474747474,1.1788915977813303
0.07575757575757576,1.2049286142573692
0.07676767676767676,1.245430639886763
0.07777777777777778,1.3032906765001826
0.07878787878787878,1.3746513883234002
0.0797979797979798,1.4575841074693017
0.0808080808080808,1.555946169712115
0.08181818181818182,1.6681303518125787
0.08282828282828283,1.7565276299719699
0.08383838383838384,1.800244102079887
0.08484848484848485,1.8327100115129724
0.08585858585858586,1.8587470279890113
0.08686868686868687,1.8764264836208895
0.08787878787878788,1.8809267086908221
0.08888888888888889,1.8699975906638429
0.0898989898989899,1.841067572357133
0.09090909090909091,1.796386766305659
0.09191919191919191,1.7494558477192186
0.09292929292929293,1.7079894881462678
0.09393939393939393,1.676166468008887
0.09494949494949495,1.6539867873070762
0.09595959595959595,1.6456292264629155
0.09696969696969697,1.6449863371672109
0.09797979797979799,1.6462721157586202
0.09898989898989899,1.6527010087156668
0.1,1.662665792799089
0.0,1.6687732411082834
0.00101010101010101,1.6707019089953974
0.00202020202020202,1.6729520215303637
0.0030303030303030303,1.6745592447696254
0.00404040404040404,1.6716662429389544
0.00505050505050505,1.6546296766027808
0.006060606060606061,1.6260211029439233
0.007070707070707071,1.5932337488629855
0.00808080808080808,1.5585177268949337
0.00909090909090909,1.5324807104188949
0.0101010101010101,1.5225159263354726
0.011111111111111112,1.5263732621097006
0.012121212121212121,1.5446956070372835
0.013131313131313131,1.5716969574568793
0.014141414141414142,1.5922694149194285
0.015151515151515152,1.6044843115378171
0.01616161616161616,1.621842322521843
0.01717171717171717,1.6446648925193585
0.01818181818181818,1.6671660178690217
0.01919191919191919,1.6861312520923093
0.0202020202020202,1.6932030343450606
0.021212121212121213,1.6758450233610347
0.022222222222222223,1.6311642173095606
0.023232323232323233,1.5816617415403016
0.024242424242424242,1.5340879336581565
0.025252525252525252,1.4736563398619182
0.026262626262626262,1.4019741833908483
0.02727272727272727,1.338649587763939
0.028282828282828285,1.2907543352339417
0.029292929292929294,1.2537882007309236
0.030303030303030304,1.2293584074941464
0.031313131313131314,1.226143961015623
0.03232323232323232,1.241573304112535
0.03333333333333333,1.2679317652364261
0.03434343434343434,1.2955760049517266
0.03535353535353535,1.329006248328369
0.03636363636363636,1.3669367167749442
0.03737373737373737,1.4022956280387007
0.03838383838383838,1.4347615374717861
0.03939393939393939,1.463691555778496
0.0404040404040404,1.4865141257760115
0.04141414141414142,1.505479359999299
0.04242424242424243,1.5215515923919156
0.043434343434343436,1.5331235997145995
0.044444444444444446,1.5440527177415788
0.045454545454545456,1.5639822859084234
0.046464646464646465,1.5884120791452006
0.047474747474747475,1.6041628668899648
0.048484848484848485,1.6109132044948637
0.049494949494949494,1.61316331702983
0.050505050505050504,1.6060915347770788
0.051515151515151514,1.5909836363280192
0.052525252525252523,1.5749114039354026
0.05353535353535353,1.554981835768558
0.05454545454545454,1.5099795850692317
0.05555555555555555,1.4418333197245374
0.05656565656565657,1.3724012757884338
0.05757575757575758,1.304576455091592
0.05858585858585859,1.2499308649566956
0.0595959595959596,1.2174649555236101
0.06060606060606061,1.2107146179187112
0.06161616161616162,1.229036962846294
0.06262626262626263,1.2772536600241438
0.06363636363636363,1.35118592903018
0.06464646464646465,1.4366902053589001
0.06565656565656566,1.5183371459133923
0.06666666666666667,1.584876188018825
0.06767676767676768,1.6430576692800969
0.06868686868686869,1.6874170306837186
0.0696969696969697,1.6980247040628456
0.0707070707070707,1.670380464347545
0.07171717171717172,1.6183064313954674
0.07272727272727272,1.552088833937887
0.07373737373737374,1.474299229157623
0.07474747474747474,1.392009399307426
0.07575757575757576,1.3190414642449468
0.07676767676767676,1.2576455365051515
0.07777777777777778,1.2120003965101205
0.07878787878787878,1.188213492569048
0.0797979797979798,1.187249158625491
0.0808080808080808,1.2065358374966308
0.08181818181818182,1.2447877505910583
0.08282828282828283,1.2994333407259546
0.08383838383838384,1.3630793810007162
0.08484848484848485,1.4219037515576929
0.08585858585858586,1.4784780095797032
0.08686868686868687,1.531516376475338
0.08787878787878788,1.5681610663305037
0.08888888888888889,1.5855190773145296
0.0898989898989899,1.5806974075967446
0.09090909090909091,1.5514459446421824
0.09191919191919191,1.5109439190127887
0.09292929292929293,1.470441893383395
0.09393939393939393,1.4296184231061488
0.09494949494949495,1.3945809564902447
0.09595959595959595,1.3659723828313872
0.09696969696969697,1.345399925368838
0.09797979797979799,1.3293276929762214
0.09898989898989899,1.3158270177664235
0.1,1.2965403388952836
0.0,1.2701818777713925
0.00101010101010101,1.2451091952389106
0.00202020202020202,1.2219651805935428
0.0030303030303030303,1.2052500589052215
0.00404040404040404,1.190142160456162
0.00505050505050505,1.1740699280635454
0.006060606060606061,1.1657123672193848
0.007070707070707071,1.1567119170795195
0.00808080808080808,1.1512473580660298
0.00909090909090909,1.163140810036566
0.0101010101010101,1.1856419353862293
0.011111111111111112,1.2152148429886438
0.012121212121212121,1.251216643548105
0.013131313131313131,1.2917186691774987
0.014141414141414142,1.3373638091725297
0.015151515151515152,1.3916879546595737
0.01616161616161616,1.4296184231061488
0.01717171717171717,1.4447263215552084
0.01818181818181818,1.4505123252165504
0.01919191919191919,1.4498694359208457
0.0202020202020202,1.4350829821196385
0.021212121212121213,1.4125818567699753
0.022222222222222223,1.3810802812804468
0.023232323232323233,1.3421854788903147
0.024242424242424242,1.309398124809377
0.025252525252525252,1.295897449599579
0.026262626262626262,1.2975046728388406
0.02727272727272727,1.3090766801615246
0.028282828282828285,1.3261132464976981
0.029292929292929294,1.35118592903018
0.030303030303030304,1.3791516133933328
0.031313131313131314,1.4051886298693717
0.03232323232323232,1.4315470909932628
0.03333333333333333,1.4572626628214493
0.03434343434343434,1.476227897044737
0.03535353535353535,1.4874784597195685
0.03636363636363636,1.4855497918324545
0.03737373737373737,1.4771922309882939
0.03838383838383838,1.46562022366561
0.03939393939393939,1.443440542963799
0.0404040404040404,1.4080816317000426
0.04141414141414142,1.3714369418448769
0.04242424242424243,1.3489358164952137
0.043434343434343436,1.329970582271926
0.044444444444444446,1.3171127963578328
0.045454545454545456,1.3126125712879002
0.046464646464646465,1.3216130214277655
0.047474747474747475,1.343471257481724
0.048484848484848485,1.3791516133933328
0.049494949494949494,1.4225466408533975
0.050505050505050504,1.4633701111306436
0.051515151515151514,1.4955145759158768
0.052525252525252523,1.5183371459133923
0.05353535353535353,1.5308734871796332
0.05454545454545454,1.5337664890103042
0.05555555555555555,1.5279804853489622
0.05656565656565657,1.5096581404213794
0.05757575757575758,1.4765493416925892
0.05858585858585859,1.4334757588803768
0.0595959595959596,1.3916879546595737
0.06060606060606061,1.3634008256485686
0.06161616161616162,1.3524717076215893
0.06262626262626263,1.3437927021295764
0.06363636363636363,1.3315778055111878
0.06464646464646465,1.3257918018498458
0.06565656565656566,1.330934916215483
0.06666666666666667,1.3486143718473613
0.06767676767676768,1.3788301687454805
0.06868686868686869,1.4135461907135323
0.0696969696969697,1.456941218173597
0.0707070707070707,1.5058008046471514
0.07171717171717172,1.5446956070372835
0.07272727272727272,1.568482510978356
0.07373737373737374,1.5803759629488923
0.07474747474747474,1.571375512809027
0.07575757575757576,1.5321592657710426
0.07676767676767676,1.4710847826790996
0.07777777777777778,1.402617072686553
0.07878787878787878,1.3312563608633354
0.0797979797979798,1.2698604331235401
0.0808080808080808,1.2177864001714624
0.08181818181818182,1.185320490738377
0.08282828282828283,1.1721412601764314
0.08383838383838384,1.1653909225715324
0.08484848484848485,1.175677151302807
0.08585858585858586,1.2123218411579728
0.08686868686868687,1.2608599829836749
0.08787878787878788,1.3000762300216593
0.08888888888888889,1.3399353663553484
0.0898989898989899,1.3804373919847421
0.09090909090909091,1.4312256463454105
0.09191919191919191,1.4990504670422524
0.09292929292929293,1.5437312730937265
0.09393939393939393,1.5562676143599674
0.09494949494949495,1.5572319483035244
0.09595959595959595,1.5366594908409752
0.09696969696969697,1.4980861330986954
0.09797979797979799,1.4566197735257447
0.09898989898989899,1.4051886298693717
0.1,1.355043264804408
0.0,1.309398124809377
0.00101010101010101,1.2705033224192448
0.00202020202020202,1.2412518594646826
0.0030303030303030303,1.231929964676965
0.00404040404040404,1.2447877505910583
0.00505050505050505,1.2733963242499158
0.006060606060606061,1.3119696819921955
0.007070707070707071,1.3582577112829313
0.00808080808080808,1.4109746335307136
0.00909090909090909,1.4669060022570193
0.0101010101010101,1.5212301477440633
0.011111111111111112,1.5459813856286928
0.012121212121212121,1.5418026052066125
0.013131313131313131,1.5260518174618483
0.014141414141414142,1.5212301477440633
0.015151515151515152,1.5337664890103042
0.01616161616161616,1.5527317232335918
0.01717171717171717,1.5726612914004363
0.01818181818181818,1.609305981255602
0.01919191919191919,1.6536653426592238
0.0202020202020202,1.6816310270223767
0.021212121212121213,1.6690946857561357
0.022222222222222223,1.6070558687206358
0.023232323232323233,1.5070865832385607
0.024242424242424242,1.3788301687454805
0.025252525252525252,1.2563597579137422
0.026262626262626262,1.1541403598967008
0.02727272727272727,1.083422537369188
0.028282828282828285,1.0390631759655662
0.029292929292929294,1.0236338328686543
0.030303030303030304,1.0406703992048278
0.031313131313131314,1.0802080908906646
0.03232323232323232,1.1383895721519366
0.03333333333333333,1.2380374129861593
0.03434343434343434,1.3576148219872266
0.03535353535353535,1.4566197735257447
0.03636363636363636,1.517051367321983
0.03737373737373737,1.5446956070372835
0.03838383838383838,1.5495172767550685
0.03939393939393939,1.526694706757553
0.0404040404040404,1.4926215740852058
0.04141414141414142,1.4595127753564157
0.04242424242424243,1.4289755338104442
0.043434343434343436,1.4058315191650763
0.044444444444444446,1.394902401138097
0.045454545454545456,1.3942595118423924
0.046464646464646465,1.4022956280387007
0.047474747474747475,1.419010749727022
0.048484848484848485,1.4357258714153431
0.049494949494949494,1.4498694359208457
0.050505050505050504,1.45597688423004
0.051515151515151514,1.4659416683134623
0.052525252525252523,1.4884427936631255
0.05353535353535353,1.5070865832385607
0.05454545454545454,1.5173728119698353
0.05555555555555555,1.518980035209097
0.05656565656565657,1.5398739373194985
0.05757575757575758,1.5778044057660736
0.05858585858585859,1.6031985329464078
0.0595959595959596,1.6105917598470114
0.06060606060606061,1.6134847616776824
0.06161616161616162,1.6202350992825814
0.06262626262626263,1.6138062063255347
0.06363636363636363,1.5887335237930529
0.06464646464646465,1.5678396216826513
0.06565656565656566,1.5726612914004363
0.06666666666666667,1.5945195274543948
0.06767676767676768,1.6231281011132523
0.06868686868686869,1.6514152301242575
0.0696969696969697,1.6816310270223767
0.0707070707070707,1.7015605951892212
0.07171717171717172,1.6899885878665373
0.07272727272727272,1.6469150050543249
0.07373737373737374,1.575232848583255
0.07474747474747474,1.4955145759158768
0.07575757575757576,1.4238324194448069
0.07676767676767676,1.3585791559307836
0.07777777777777778,1.3106839034007862
0.07878787878787878,1.28914711199468
0.0797979797979798,1.2820753297419287
0.0808080808080808,1.3013620086130686
0.08181818181818182,1.3437927021295764
0.08282828282828283,1.3878306188853458
0.08383838383838384,1.4289755338104442
0.08484848484848485,1.4877999043674208
0.08585858585858586,1.5585177268949337
0.08686868686868687,1.621842322521843
0.08787878787878788,1.6678089071647264
0.08888888888888889,1.687738475331571
0.0898989898989899,1.6716662429389544
0.09090909090909091,1.6173420974519104
0.09191919191919191,1.5318378211231902
0.09292929292929293,1.44633354479447
0.09393939393939393,1.3971525136730634
0.09494949494949495,1.3807588366325945
0.09595959595959595,1.387187729589641
0.09696969696969697,1.4106531888828613
0.09797979797979799,1.4562983288778923
0.09898989898989899,1.530552042531781
0.1,1.617984986747615
0.0,1.7192400508210994
0.00101010101010101,1.8256382292602211
0.00202020202020202,1.9169285092502832
0.0030303030303030303,1.9924680014955811
0.00404040404040404,2.0522567059961148
0.00505050505050505,2.0808652796549723
0.006060606060606061,2.055471152474638
0.007070707070707071,1.9812174388207495
0.00808080808080808,1.8767479282687418
0.00909090909090909,1.7652066354639828
0.0101010101010101,1.669416130403988
0.011111111111111112,1.586804855905939
0.012121212121212121,1.5205872584483586
0.013131313131313131,1.4903714615502395
0.014141414141414142,1.4826567900017835
0.015151515151515152,1.4755850077490322
0.01616161616161616,1.4566197735257447
0.01717171717171717,1.4318685356411152
0.01818181818181818,1.4058315191650763
0.01919191919191919,1.3791516133933328
0.0202020202020202,1.3486143718473613
0.021212121212121213,1.3200057981885038
0.022222222222222223,1.3129340159357525
0.023232323232323233,1.3479714825516567
0.024242424242424242,1.4241538640926592
0.025252525252525252,1.528623374644667
0.026262626262626262,1.6385574442101642
0.02727272727272727,1.7301691688480787
0.028282828282828285,1.7893149840529077
0.029292929292929294,1.8237095613731071
0.030303030303030304,1.8465321313706227
0.031313131313131314,1.857461249397602
0.03232323232323232,1.8452463527792133
0.03333333333333333,1.8233881167252548
0.03434343434343434,1.8143876665853895
0.03535353535353535,1.8198522255988792
0.03636363636363636,1.8336743454565294
0.03737373737373737,1.845889242074918
0.03838383838383838,1.8510323564405553
0.03939393939393939,1.848782243905589
0.0404040404040404,1.8311027882737108
0.04141414141414142,1.8095659968676046
0.04242424242424243,1.7902793179964647
0.043434343434343436,1.7806359785608947
0.044444444444444446,1.7931723198271357
0.045454545454545456,1.8240310060209595
0.046464646464646465,1.856496915454045
0.047474747474747475,1.8870341570000164
0.048484848484848485,1.9371795220649801
0.049494949494949494,2.0178621286759153
0.050505050505050504,2.103044960356783
0.051515151515151514,2.1711912257014774
0.052525252525252523,2.222300924709998
0.05353535353535353,2.2779108487884514
0.05454545454545454,2.3441284462460317
0.05555555555555555,2.432847169053275
0.05656565656565657,2.5527460227021948
0.05757575757575758,2.683895439025946
0.05858585858585859,2.737255250569433
0.0595959595959596,2.6755378781817853
0.06060606060606061,2.517065666790586
0.06161616161616162,2.268910398648586
0.06262626262626263,1.94682286150055
0.06363636363636363,1.5736256253439933
0.06464646464646465,1.198821165948175
0.06565656565656566,0.8960203076712787
0.06666666666666667,0.6825810614973307
0.06767676767676768,0.5549675362999551
0.06868686868686869,0.5241088501061313
0.0696969696969697,0.5768257723539136
0.0707070707070707,0.6825810614973307
0.07171717171717172,0.8175878135953099
0.07272727272727272,0.9689882427337579
0.07373737373737374,1.1068879966624081
0.07474747474747474,1.2190721787628718
0.07575757575757576,1.3100410141050816
0.07676767676767676,1.3781872794497758
0.07777777777777778,1.452119548455812
0.07878787878787878,1.5427669391501695
0.0797979797979798,1.6491651175892912
0.0808080808080808,1.7861005375743844
0.08181818181818182,1.959359202766791
0.08282828282828283,2.1393682055640966
0.08383838383838384,2.2714819558314048
0.08484848484848485,2.364700903708581
0.08585858585858586,2.424811052856967
0.08686868686868687,2.455026849755086
0.08787878787878788,2.460812853416428
0.08888888888888889,2.4283469439833425
0.0898989898989899,2.3450927801895887
0.09090909090909091,2.2235867033014074
0.09191919191919191,2.0647930472623557
0.09292929292929293,1.9104996162932366
0.09393939393939393,1.776135753490962
0.09494949494949495,1.6658802392776124
0.09595959595959595,1.5958053060458042
0.09696969696969697,1.5517673892900348
0.09797979797979799,1.5263732621097006
0.09898989898989899,1.5289448192925192
0.1,1.558839171542786
0.0,1.6157348742126487
0.00101010101010101,1.7054179309634492
0.00202020202020202,1.838174570526462
0.0030303030303030303,1.9998612283961847
0.00404040404040404,2.1705483364057727
0.00505050505050505,2.329984881740529
0.006060606060606061,2.435418726236094
0.007070707070707071,2.4662774124299176
0.00808080808080808,2.4460263996152207
0.00909090909090909,2.3875234737060964
0.0101010101010101,2.259909948508721
0.011111111111111112,2.0763650545850396
0.012121212121212121,1.8767479282687418
0.013131313131313131,1.6957745915278792
0.014141414141414142,1.555946169712115
0.015151515151515152,1.4804066774668172
0.01616161616161616,1.4910143508459441
0.01717171717171717,1.5990197525243275
0.01818181818181818,1.8073158843326382
0.01919191919191919,2.097901845991146
0.0202020202020202,2.412274711590726
0.021212121212121213,2.648215083114337
0.022222222222222223,2.7456128114135936
0.023232323232323233,2.7202186842332594
0.024242424242424242,2.602569943119306
0.025252525252525252,2.4331686137011275
0.026262626262626262,2.2403018249897286
0.02727272727272727,2.032005693181418
0.028282828282828285,1.8327100115129724
0.029292929292929294,1.6446648925193585
0.030303030303030304,1.4877999043674208
0.031313131313131314,1.3839732831111178
0.03232323232323232,1.3489358164952137
0.03333333333333333,1.3765800562105142
0.03434343434343434,1.4566197735257447
0.03535353535353535,1.586804855905939
0.03636363636363636,1.7317763920873404
0.03737373737373737,1.8111732201068662
0.03838383838383838,1.7700283051817678
0.03939393939393939,1.5945195274543948
0.0404040404040404,1.3187200195970945
0.04141414141414142,1.0284555025864393
0.04242424242424243,0.8095516973990016
0.043434343434343436,0.7385124302236363
0.044444444444444446,0.8265882637351751
0.045454545454545456,1.030062725825701
0.046464646464646465,1.3151841284707189
0.047474747474747475,1.673273466178216
0.048484848484848485,2.0721862741629593
0.049494949494949494,2.4547054051072337
0.050505050505050504,2.7620064884540625
0.051515151515151514,2.918871476606
0.052525252525252523,2.851689545204863
0.05353535353535353,2.5810331517132
0.05454545454545454,2.1859776795026846
0.05555555555555555,1.730490613495931
0.05656565656565657,1.2637529848143458
0.05757575757575758,0.8542325034504756
0.05858585858585859,0.5395381932030432
0.0595959595959596,0.35792196716647595
0.06060606060606061,0.34377840266097337
0.06161616161616162,0.4864998263074085
0.06262626262626263,0.7561918858555146
0.06363636363636363,1.1326035684905946
0.06464646464646465,1.5932337488629855
0.06565656565656566,2.0985447352868505
0.06666666666666667,2.5611035835463554
0.06767676767676768,2.886727011820767
0.06868686868686869,3.043591999972705
0.0696969696969697,3.051628116169013
0.0707070707070707,2.9423369358992204
0.07171717171717172,2.7250403539510444
0.07272727272727272,2.427061165391933
0.07373737373737374,2.108830964018125
0.07474747474747474,1.8063515503890812
0.07575757575757576,1.5639822859084234
0.07676767676767676,1.4292969784582965
0.07777777777777778,1.40358140663011
0.07878787878787878,1.4299398677540012
0.0797979797979798,1.4858712364803068
0.0808080808080808,1.572339846752584
0.08181818181818182,1.6565583444898948
0.08282828282828283,1.6806666930788197
0.08383838383838384,1.6507723408285528
0.08484848484848485,1.571375512809027
0.08585858585858586,1.466584557609167
0.08686868686868687,1.3534360415651463
0.08787878787878788,1.2187507341150194
0.08888888888888889,1.0390631759655662
0.0898989898989899,0.8500537230283953
0.09090909090909091,0.6992961831856519
0.09191919191919191,0.6311499178409576
0.09292929292929293,0.6649016058654524
0.09393939393939393,0.8063372509204783
0.09494949494949495,1.0496708493446931
0.09595959595959595,1.406474408460781
0.09696969696969697,1.850710911792703
0.09797979797979799,2.3344851068104617
0.09898989898989899,2.7510773704270832
0.1,3.008875978004653
0.0,3.0812010237714276
0.00101010101010101,2.9609807254746556
0.00202020202020202,2.702217783953529
0.0030303030303030303,2.380130246805493
0.00404040404040404,2.0258982448722236
0.00505050505050505,1.6482007836457342
0.006060606060606061,1.2698604331235401
0.007070707070707071,0.9403796690749004
0.00808080808080808,0.6957602920592763
0.00909090909090909,0.5546460916521028
0.0101010101010101,0.49196438532089815
0.011111111111111112,0.5099652856006287
0.012121212121212121,0.6134704622090794
0.013131313131313131,0.7751571200788021
0.014141414141414142,0.960309237241745
0.015151515151515152,1.1515688027138822
0.01616161616161616,1.3331850287504494
0.01717171717171717,1.499693356337957
0.01818181818181818,1.6398432228015736
0.01919191919191919,1.7600635210983455
0.0202020202020202,1.8806052640429698
0.021212121212121213,2.0014684516354464
0.022222222222222223,2.088258506555576
0.023232323232323233,2.129081976832822
0.024242424242424242,2.133903646550607
0.025252525252525252,2.1236174178193323
0.026262626262626262,2.1277961982414126
0.02727272727272727,2.1499758789432235
0.028282828282828285,2.1547975486610085
0.029292929292929294,2.1265104196500033
0.030303030303030304,2.0451849237433635
0.031313131313131314,1.9056779465754516
0.03232323232323232,1.7253474991302937
0.03333333333333333,1.5041935814078897
0.03434343434343434,1.2888256673468277
0.03535353535353535,1.1255317862378433
0.03636363636363636,1.0265268346993253
0.03737373737373737,0.9792744714650325
0.03838383838383838,0.9741313570993952
0.03939393939393939,0.9975968163926154
0.0404040404040404,1.0371345080784522
0.04141414141414142,1.1014234376489185
0.04242424242424243,1.1827489335555583
0.043434343434343436,1.2788608832634054
0.044444444444444446,1.3826875045197085
0.045454545454545456,1.4681917808484286
0.046464646464646465,1.522837370983325
0.047474747474747475,1.5424454945023172
0.048484848484848485,1.513194031547755
0.049494949494949494,1.4524409931036644
0.050505050505050504,1.386223395646084
0.051515151515151514,1.3167913517099805
0.052525252525252523,1.2595742043922655
0.05353535353535353,1.2325728539726697
0.05454545454545454,1.233858632564079
0.05555555555555555,1.2447877505910583
0.05656565656565657,1.24639497383032
0.05757575757575758,1.2460735291824676
0.05858585858585859,1.2505737542524002
0.0595959595959596,1.2660030973493122
0.06060606060606061,1.2859326655161567
0.06161616161616162,1.3087552355136722
0.06262626262626263,1.3418640342424624
0.06363636363636363,1.3859019509982318
0.06464646464646465,1.4289755338104442
0.06565656565656566,1.4688346701441333
0.06666666666666667,1.5138369208434597
0.06767676767676768,1.5601249501341954
0.06868686868686869,1.5977339739329182
0.0696969696969697,1.6311642173095606
0.0707070707070707,1.6671660178690217
0.07171717171717172,1.695453146880027
0.07272727272727272,1.6970603701192886
0.07373737373737374,1.668451796460431
0.07474747474747474,1.627628326183185
0.07575757575757576,1.5874477452016436
0.07676767676767676,1.5620536180213094
0.07777777777777778,1.5553032804164104
0.07878787878787878,1.5681610663305037
0.0797979797979798,1.5996626418200321
0.0808080808080808,1.6482007836457342
0.08181818181818182,1.7083109327941202
0.08282828282828283,1.7645637461682782
0.08383838383838384,1.8089231075719
0.08484848484848485,1.845889242074918
0.08585858585858586,1.888641380239278
0.08686868686868687,1.9285005165729672
0.08787878787878788,1.9381438560085371
0.08888888888888889,1.910821060941089
0.0898989898989899,1.8703190353116952
0.09090909090909091,1.8256382292602211
0.09191919191919191,1.7748499748995528
0.09292929292929293,1.7163470489904284
0.09393939393939393,1.6607371249119751
0.09494949494949495,1.6166992081562057
0.09595959595959595,1.5929123042151332
0.09696969696969697,1.5864834112580866
0.09797979797979799,1.5890549684409052
0.09898989898989899,1.6006269757635891
0.1,1.6154134295647964
0.0,1.6279497708310373
0.00101010101010101,1.635342997731641
0.00202020202020202,1.630521328013856
0.0030303030303030303,1.6080202026641928
0.00404040404040404,1.5678396216826513
0.00505050505050505,1.506443693942856
0.006060606060606061,1.4325114249368198
0.007070707070707071,1.3634008256485686
0.00808080808080808,1.3081123462179676
0.00909090909090909,1.2695389884756878
0.0101010101010101,1.2528238667873666
0.011111111111111112,1.2611814276315272
0.012121212121212121,1.2917186691774987
0.013131313131313131,1.337685253820382
0.014141414141414142,1.390080731420312
0.015151515151515152,1.4386188732460141
0.01616161616161616,1.4775136756361462
0.01717171717171717,1.5106224743649364
0.01818181818181818,1.5363380461931229
0.01919191919191919,1.553053167881444
0.0202020202020202,1.5572319483035244
0.021212121212121213,1.5572319483035244
0.022222222222222223,1.5472671642201021
0.023232323232323233,1.5273375960532576
0.024242424242424242,1.4971217991551384
0.025252525252525252,1.466584557609167
0.026262626262626262,1.4476193233858794
0.02727272727272727,1.4347615374717861
0.028282828282828285,1.4244753087405115
0.029292929292929294,1.4177249711356126
0.030303030303030304,1.4119389674742706
0.031313131313131314,1.4071172977564856
0.03232323232323232,1.4090459656435996
0.03333333333333333,1.414189080009237
0.03434343434343434,1.4202965283184312
0.03535353535353535,1.4292969784582965
0.03636363636363636,1.4386188732460141
0.03737373737373737,1.4427976536680944
0.03838383838383838,1.4360473160631955
0.03939393939393939,1.419975083670579
0.0404040404040404,1.400688404799439
0.04141414141414142,1.3849376170546748
0.04242424242424243,1.3797945026890375
0.043434343434343436,1.392973733250983
0.044444444444444446,1.4267254212754779
0.045454545454545456,1.474299229157623
0.046464646464646465,1.5401953819673508
0.047474747474747475,1.616056318860501
0.048484848484848485,1.6864526967401616
0.049494949494949494,1.741098286875058
0.050505050505050504,1.780957423208747
0.051515151515151514,1.8047443271498196
0.052525252525252523,1.8092445522197522
0.05353535353535353,1.793493764474988
0.05454545454545454,1.7629565229290165
0.05555555555555555,1.7214901633560658
0.05656565656565657,1.66555879462976
0.05757575757575758,1.5951624167500995
0.05858585858585859,1.5144798101391643
0.0595959595959596,1.4379759839503095
0.06060606060606061,1.3814017259282991
0.06161616161616162,1.3402568110032007
0.06262626262626263,1.3161484624142759
0.06363636363636363,1.3135769052314572
0.06464646464646465,1.3354351412854157
0.06565656565656566,1.3669367167749442
0.06666666666666667,1.4051886298693717
0.06767676767676768,1.4395832071895711
0.06868686868686869,1.4572626628214493
0.0696969696969697,1.4534053270472214
0.0707070707070707,1.4289755338104442
0.07171717171717172,1.3942595118423924
0.07272727272727272,1.3630793810007162
0.07373737373737374,1.3264346911455505
0.07474747474747474,1.2907543352339417
0.07575757575757576,1.2688960991799831
0.07676767676767676,1.2618243169272318
0.07777777777777778,1.2663245419971645
0.07878787878787878,1.2820753297419287
0.0797979797979798,1.3113267926964909
0.0808080808080808,1.3373638091725297
0.08181818181818182,1.3643651595921256
0.08282828282828283,1.3936166225466877
0.08383838383838384,1.4222251962055452
0.08484848484848485,1.449226546625141
0.08585858585858586,1.4730134505662136
0.08686868686868687,1.4942287973244675
0.08787878787878788,1.5086938064778224
0.08888888888888889,1.5154441440827213
0.0898989898989899,1.517051367321983
0.09090909090909091,1.5086938064778224
0.09191919191919191,1.4916572401416488
0.09292929292929293,1.4736563398619182
0.09393939393939393,1.4643344450742006
0.09494949494949495,1.461762887891382
0.09595959595959595,1.4672274469048716
0.09696969696969697,1.4791208988754079
0.09797979797979799,1.4951931312680244
0.09898989898989899,1.5115868083084933
0.1,1.526694706757553
0.0,1.5405168266152032
0.00101010101010101,1.5536960571771488
0.00202020202020202,1.5662323984433897
0.0030303030303030303,1.5729827360482886
0.00404040404040404,1.5755542932311073
0.00505050505050505,1.574268514639698
0.006060606060606061,1.5710540681611747
0.007070707070707071,1.5623750626691617
0.00808080808080808,1.555946169712115
0.00909090909090909,1.5565890590078197
0.0101010101010101,1.5562676143599674
0.011111111111111112,1.555946169712115
0.012121212121212121,1.5479100535158068
0.013131313131313131,1.5273375960532576
0.014141414141414142,1.4951931312680244
0.015151515151515152,1.461762887891382
0.01616161616161616,1.4344400928239338
0.01717171717171717,1.4193321943748742
0.01818181818181818,1.4196536390227266
0.01919191919191919,1.4302613124018535
0.0202020202020202,1.4360473160631955
0.021212121212121213,1.4344400928239338
0.022222222222222223,1.4202965283184312
0.023232323232323233,1.394902401138097
0.024242424242424242,1.3685439400142059
0.025252525252525252,1.3508644843823276
0.026262626262626262,1.3486143718473613
0.02727272727272727,1.3643651595921256
0.028282828282828285,1.3942595118423924
0.029292929292929294,1.4305827570497058
0.030303030303030304,1.4691561147919856
0.031313131313131314,1.511265363660641
0.03232323232323232,1.5488743874593638
0.03333333333333333,1.5768400718225166
0.03434343434343434,1.5970910846372135
0.03535353535353535,1.6144490956212394
0.03636363636363636,1.6273068815353326
0.03737373737373737,1.6330928851966746
0.03838383838383838,1.6273068815353326
0.03939393939393939,1.6109132044948637
0.0404040404040404,1.5929123042151332
0.04141414141414142,1.5871263005537912
0.04242424242424243,1.5925908595672809
0.043434343434343436,1.6186278760433197
0.044444444444444446,1.6604156802641228
0.045454545454545456,1.7028463737806305
0.046464646464646465,1.7481700691278093
0.047474747474747475,1.7825646464480087
0.048484848484848485,1.7918865412357263
0.049494949494949494,1.7738856409559958
0.050505050505050504,1.7398125082836486
0.051515151515151514,1.6922387004015036
0.052525252525252523,1.6330928851966746
0.05353535353535353,1.565589509147685
0.05454545454545454,1.4887642383109778
0.05555555555555555,1.404545740573667
0.05656565656565657,1.3206486874842085
0.05757575757575758,1.2412518594646826
0.05858585858585859,1.1740699280635454
0.0595959595959596,1.12231733975932
0.06060606060606061,1.0924229875090532
0.06161616161616162,1.0937087661004625
0.06262626262626263,1.127139009477105
0.06363636363636363,1.180498821020592
0.06464646464646465,1.2579669811530039
0.06565656565656566,1.349257261143066
0.06666666666666667,1.4395832071895711
0.06767676767676768,1.5125511422520503
0.06868686868686869,1.5697682895697653
0.0696969696969697,1.6118775384384207
0.0707070707070707,1.6369502209709026
0.07171717171717172,1.6433791139279492
0.07272727272727272,1.6301998833660036
0.07373737373737374,1.5993411971721798
0.07474747474747474,1.564625175204128
0.07575757575757576,1.5379452694323845
0.07676767676767676,1.5283019299968146
0.07777777777777778,1.5328021550667472
0.07878787878787878,1.554981835768558
0.0797979797979798,1.5880906344973482
0.0808080808080808,1.6282712154788896
0.08181818181818182,1.6710233536432497
0.08282828282828283,1.7070251542027108
0.08383838383838384,1.7292048349045217
0.08484848484848485,1.733383615326602
0.08585858585858586,1.726633277721703
0.08686868686868687,1.7025249291327782
0.08787878787878788,1.6642730160383508
0.08888888888888889,1.6192707653390244
0.0898989898989899,1.566553843091242
0.09090909090909091,1.5067651385907084
0.09191919191919191,1.4431190983159468
0.09292929292929293,1.3897592867724597
0.09393939393939393,1.3566504880436696
0.09494949494949495,1.3412211449467577
0.09595959595959595,1.340578255651053
0.09696969696969697,1.3601863791700453
0.09797979797979799,1.3974739583209157
0.09898989898989899,1.4485836573294364
0.1,1.4971217991551384
0.0,1.5437312730937265
0.00101010101010101,1.5877691898494959
0.00202020202020202,1.6183064313954674
0.0030303030303030303,1.6340572191402316
0.00404040404040404,1.638235999562312
0.00505050505050505,1.6350215530837886
0.006060606060606061,1.620877988578286
0.007070707070707071,1.6019127543549985
0.00808080808080808,1.586804855905939
0.00909090909090909,1.572339846752584
0.0101010101010101,1.553053167881444
0.011111111111111112,1.5373023801366799
0.012121212121212121,1.5299091532360762
0.013131313131313131,1.5324807104188949
0.014141414141414142,1.5514459446421824
0.015151515151515152,1.5932337488629855
0.01616161616161616,1.6536653426592238
0.01717171717171717,1.7195614954689518
0.01818181818181818,1.7909222072921693
0.01919191919191919,1.8568183601018973
0.0202020202020202,1.8941059392527677
0.021212121212121213,1.8889628248871304
0.022222222222222223,1.8397817937657237
0.023232323232323233,1.7587777425069362
0.024242424242424242,1.6652373499819078
0.025252525252525252,1.5784472950617783
0.026262626262626262,1.5041935814078897
0.02727272727272727,1.4447263215552084
0.028282828282828285,1.398759736912325
0.029292929292929294,1.3691868293099105
0.030303030303030304,1.355043264804408
0.031313131313131314,1.354078930860851
0.03232323232323232,1.3669367167749442
0.03333333333333333,1.3884735081810504
0.03434343434343434,1.405510074517224
0.03535353535353535,1.417082081839908
0.03636363636363636,1.4273683105711825
0.03737373737373737,1.4395832071895711
0.03838383838383838,1.4498694359208457
0.03939393939393939,1.4601556646521203
0.0404040404040404,1.4707633380312473
0.04141414141414142,1.4855497918324545
0.04242424242424243,1.510301029717084
0.043434343434343436,1.554981835768558
0.044444444444444446,1.628592660126742
0.045454545454545456,1.7240617205388844
0.046464646464646465,1.838174570526462
0.047474747474747475,1.9657880957238376
0.048484848484848485,2.0869727279641666
0.049494949494949494,2.1898350152769126
0.050505050505050504,2.2538025001995265
0.051515151515151514,2.259909948508721
0.052525252525252523,2.2161934764008038
0.05353535353535353,2.1451542092254385
0.05454545454545454,2.0528995952918194
0.05555555555555555,1.9490729740355164
0.05656565656565657,1.8513538010884076
0.05757575757575758,1.7693854158860631
0.05858585858585859,1.6912743664579466
0.0595959595959596,1.6347001084359363
0.06060606060606061,1.616056318860501
0.06161616161616162,1.6301998833660036
0.06262626262626263,1.6562368998420425
0.06363636363636363,1.691595811105799
0.06464646464646465,1.7224544972996227
0.06565656565656566,1.749777292367071
0.06666666666666667,1.7832075357437134
0.06767676767676768,1.8291741203865968
0.06868686868686869,1.852639579679817
0.0696969696969697,1.8388174598221667
0.0707070707070707,1.8057086610933766
0.07171717171717172,1.779028755321633
0.07272727272727272,1.7587777425069362
0.07373737373737374,1.7520274049020372
0.07474747474747474,1.7697068605339155
0.07575757575757576,1.8121375540504232
0.07676767676767676,1.8529610243276693
0.07777777777777778,1.8912129374220967
0.07878787878787878,1.9384653006563894
0.0797979797979798,1.9911822229041718
0.0808080808080808,2.031041359237861
0.08181818181818182,2.057399820361752
0.08282828282828283,2.058364154305309
0.08383838383838384,2.042934811208397
0.08484848484848485,2.03232713782927
0.08585858585858586,2.034255805716384
0.08686868686868687,2.031041359237861
0.08787878787878788,2.0095045678317547
0.08888888888888889,1.973824211920146
0.0898989898989899,1.9384653006563894
0.09090909090909091,1.886712712352164
0.09191919191919191,1.7864219822222367
0.09292929292929293,1.6417718906886876
0.09393939393939393,1.497764688450843
0.09494949494949495,1.3981168476166204
0.09595959595959595,1.3421854788903147
0.09696969696969697,1.3196843535406515
0.09797979797979799,1.334792251989711
0.09898989898989899,1.385259061702527
0.1,1.473334895214066
0.0,1.5851976326666772
0.00101010101010101,1.7118468239204958
0.00202020202020202,1.8571398047497496
0.0030303030303030303,2.0014684516354464
0.00404040404040404,2.1226530838757753
0.00505050505050505,2.231944264145568
0.006060606060606061,2.3235559887834825
0.007070707070707071,2.366629571595695
0.00808080808080808,2.349271560611669
0.00909090909090909,2.2566955020301975
0.0101010101010101,2.0995090692304075
0.011111111111111112,1.919500066433102
0.012121212121212121,1.7394910636357963
0.013131313131313131,1.5935551935108379
0.014141414141414142,1.5157655887305737
0.015151515151515152,1.5186585905612446
0.01616161616161616,1.5736256253439933
0.01717171717171717,1.6417718906886876
0.01818181818181818,1.7163470489904284
0.01919191919191919,1.7783858660259284
0.0202020202020202,1.8243524506688118
0.021212121212121213,1.855532581510488
0.022222222222222223,1.8606756958761252
0.023232323232323233,1.8571398047497496
0.024242424242424242,1.8671045888331719
0.025252525252525252,1.8966774964355864
0.026262626262626262,1.9776815476943739
0.02727272727272727,2.10400929430034
0.028282828282828285,2.2354801552719437
